  -6.1000000000000000e+01  -6.3000000000000000e+01  -6.5000000000000000e+01  -6.6000000000000000e+01  -6.8000000000000000e+01  -6.9000000000000000e+01  -6.9000000000000000e+01  -6.9000000000000000e+01  -6.9000000000000000e+01  -6.8000000000000000e+01  -6.7000000000000000e+01  -6.7000000000000000e+01  -6.6000000000000000e+01  -6.6000000000000000e+01  -6.7000000000000000e+01  -6.7000000000000000e+01  -6.8000000000000000e+01  -6.9000000000000000e+01  -7.1000000000000000e+01  -7.2000000000000000e+01  -7.3000000000000000e+01  -7.4000000000000000e+01  -7.4000000000000000e+01  -7.3000000000000000e+01  -7.2000000000000000e+01  -7.1000000000000000e+01  -7.1000000000000000e+01  -7.1000000000000000e+01  -7.0000000000000000e+01  -7.0000000000000000e+01  -7.0000000000000000e+01  -6.9000000000000000e+01  -6.9000000000000000e+01  -6.8000000000000000e+01  -6.8000000000000000e+01  -6.8000000000000000e+01  -6.8000000000000000e+01  -6.8000000000000000e+01  -6.8000000000000000e+01  -6.7000000000000000e+01  -6.7000000000000000e+01  -6.7000000000000000e+01  -6.7000000000000000e+01  -6.8000000000000000e+01  -6.7000000000000000e+01  -6.7000000000000000e+01  -6.5000000000000000e+01  -6.3000000000000000e+01  -6.1000000000000000e+01  -6.0000000000000000e+01  -5.9000000000000000e+01  -5.9000000000000000e+01  -5.9000000000000000e+01  -5.9000000000000000e+01  -6.0000000000000000e+01  -6.2000000000000000e+01  -6.4000000000000000e+01  -6.8000000000000000e+01  -7.4000000000000000e+01  -8.2000000000000000e+01  -9.1000000000000000e+01  -9.8000000000000000e+01  -1.0200000000000000e+02  -1.0300000000000000e+02  -1.0200000000000000e+02  -1.0100000000000000e+02  -1.0600000000000000e+02  -1.2000000000000000e+02  -1.4500000000000000e+02  -1.7700000000000000e+02  -2.1400000000000000e+02  -2.5400000000000000e+02  -2.9800000000000000e+02  -3.4800000000000000e+02  -4.0200000000000000e+02  -4.5400000000000000e+02  -4.9500000000000000e+02  -5.2200000000000000e+02  -5.3500000000000000e+02  -5.3800000000000000e+02  -5.3400000000000000e+02  -5.2700000000000000e+02  -5.1500000000000000e+02  -4.9900000000000000e+02  -4.7900000000000000e+02  -4.5700000000000000e+02  -4.3500000000000000e+02  -4.1400000000000000e+02  -3.9600000000000000e+02  -3.7800000000000000e+02  -3.6000000000000000e+02  -3.3900000000000000e+02  -3.1300000000000000e+02  -2.8600000000000000e+02  -2.6100000000000000e+02  -2.4300000000000000e+02  -2.3700000000000000e+02  -2.4200000000000000e+02  -2.5300000000000000e+02  -2.6500000000000000e+02  -2.7400000000000000e+02  -2.7700000000000000e+02  -2.7400000000000000e+02  -2.6500000000000000e+02  -2.5100000000000000e+02  -2.3400000000000000e+02  -2.1400000000000000e+02  -1.9300000000000000e+02  -1.7200000000000000e+02  -1.5300000000000000e+02  -1.3400000000000000e+02  -1.1700000000000000e+02  -1.0100000000000000e+02  -9.0000000000000000e+01  -8.3000000000000000e+01  -7.9000000000000000e+01  -7.1000000000000000e+01  -5.1000000000000000e+01  -9.0000000000000000e+00   5.3000000000000000e+01   1.2500000000000000e+02   1.8900000000000000e+02   2.2900000000000000e+02   2.3900000000000000e+02   2.2400000000000000e+02   1.9400000000000000e+02   1.6100000000000000e+02   1.3200000000000000e+02   1.0800000000000000e+02   8.9000000000000000e+01   7.3000000000000000e+01   6.0000000000000000e+01   4.8000000000000000e+01   4.0000000000000000e+01   3.3000000000000000e+01   2.7000000000000000e+01   2.2000000000000000e+01   1.5000000000000000e+01   8.0000000000000000e+00   0.0000000000000000e+00  -7.0000000000000000e+00  -1.2000000000000000e+01  -1.4000000000000000e+01  -1.4000000000000000e+01  -1.3000000000000000e+01  -1.2000000000000000e+01  -1.2000000000000000e+01  -1.2000000000000000e+01  -1.3000000000000000e+01  -1.3000000000000000e+01  -1.2000000000000000e+01  -1.0000000000000000e+01  -8.0000000000000000e+00  -7.0000000000000000e+00  -6.0000000000000000e+00  -5.0000000000000000e+00  -4.0000000000000000e+00  -3.0000000000000000e+00  -1.0000000000000000e+00   1.0000000000000000e+00   4.0000000000000000e+00   7.0000000000000000e+00   1.0000000000000000e+01   1.3000000000000000e+01   1.7000000000000000e+01   2.0000000000000000e+01   2.3000000000000000e+01   2.5000000000000000e+01   2.7000000000000000e+01   2.8000000000000000e+01   3.0000000000000000e+01   3.0000000000000000e+01   3.1000000000000000e+01   3.0000000000000000e+01   2.9000000000000000e+01   2.9000000000000000e+01   2.9000000000000000e+01   3.0000000000000000e+01   3.1000000000000000e+01   3.1000000000000000e+01   2.9000000000000000e+01   2.8000000000000000e+01   2.7000000000000000e+01   2.6000000000000000e+01   2.6000000000000000e+01   2.5000000000000000e+01   2.1000000000000000e+01   1.4000000000000000e+01   3.0000000000000000e+00  -1.0000000000000000e+01  -2.5000000000000000e+01  -3.8000000000000000e+01  -4.9000000000000000e+01  -5.5000000000000000e+01  -5.7000000000000000e+01  -5.4000000000000000e+01  -4.7000000000000000e+01  -3.9000000000000000e+01  -2.9000000000000000e+01  -2.0000000000000000e+01  -1.0000000000000000e+01   0.0000000000000000e+00   8.0000000000000000e+00   1.6000000000000000e+01   2.3000000000000000e+01   2.8000000000000000e+01   3.1000000000000000e+01   3.5000000000000000e+01   3.7000000000000000e+01   3.9000000000000000e+01   4.1000000000000000e+01   4.2000000000000000e+01   4.2000000000000000e+01   4.4000000000000000e+01   4.5000000000000000e+01   4.6000000000000000e+01   4.6000000000000000e+01   4.7000000000000000e+01   4.7000000000000000e+01   4.8000000000000000e+01   4.9000000000000000e+01   5.1000000000000000e+01   5.2000000000000000e+01   5.4000000000000000e+01   5.4000000000000000e+01   5.5000000000000000e+01   5.6000000000000000e+01   5.7000000000000000e+01   5.8000000000000000e+01   6.0000000000000000e+01   6.1000000000000000e+01   6.1000000000000000e+01   6.1000000000000000e+01   6.0000000000000000e+01   5.9000000000000000e+01   5.9000000000000000e+01   6.0000000000000000e+01   6.1000000000000000e+01   6.2000000000000000e+01   6.2000000000000000e+01   6.2000000000000000e+01   6.1000000000000000e+01   6.0000000000000000e+01   5.9000000000000000e+01   5.9000000000000000e+01   6.0000000000000000e+01   6.1000000000000000e+01   6.1000000000000000e+01   6.2000000000000000e+01   6.3000000000000000e+01   6.5000000000000000e+01   6.7000000000000000e+01   6.8000000000000000e+01   7.0000000000000000e+01   7.1000000000000000e+01   7.2000000000000000e+01   7.3000000000000000e+01   7.4000000000000000e+01   7.4000000000000000e+01   7.4000000000000000e+01   7.5000000000000000e+01   7.5000000000000000e+01   7.6000000000000000e+01   7.6000000000000000e+01   7.7000000000000000e+01   7.7000000000000000e+01   7.8000000000000000e+01   7.8000000000000000e+01   7.8000000000000000e+01   7.7000000000000000e+01   7.7000000000000000e+01   7.7000000000000000e+01   7.7000000000000000e+01   7.8000000000000000e+01   7.8000000000000000e+01   7.8000000000000000e+01   7.9000000000000000e+01   7.9000000000000000e+01   7.9000000000000000e+01   7.9000000000000000e+01   7.9000000000000000e+01   7.9000000000000000e+01   7.8000000000000000e+01   7.5000000000000000e+01   7.0000000000000000e+01   6.1000000000000000e+01   5.1000000000000000e+01   4.1000000000000000e+01   3.4000000000000000e+01   3.1000000000000000e+01   3.2000000000000000e+01   3.6000000000000000e+01   4.2000000000000000e+01   4.9000000000000000e+01   5.8000000000000000e+01   6.7000000000000000e+01   7.5000000000000000e+01   8.2000000000000000e+01   8.8000000000000000e+01   9.3000000000000000e+01   9.8000000000000000e+01   1.0200000000000000e+02   1.0700000000000000e+02   1.1100000000000000e+02   1.1500000000000000e+02   1.1800000000000000e+02   1.2100000000000000e+02   1.2300000000000000e+02   1.2500000000000000e+02   1.2700000000000000e+02   1.2800000000000000e+02   1.2900000000000000e+02   1.3100000000000000e+02   1.3200000000000000e+02   1.3400000000000000e+02   1.3600000000000000e+02   1.3700000000000000e+02   1.3900000000000000e+02   1.4000000000000000e+02   1.4100000000000000e+02   1.4100000000000000e+02   1.4200000000000000e+02   1.4300000000000000e+02   1.4400000000000000e+02   1.4600000000000000e+02   1.4700000000000000e+02   1.4800000000000000e+02   1.4900000000000000e+02   1.5000000000000000e+02   1.5100000000000000e+02   1.5200000000000000e+02   1.5300000000000000e+02   1.5400000000000000e+02   1.5500000000000000e+02   1.5600000000000000e+02   1.5800000000000000e+02   1.6000000000000000e+02   1.6300000000000000e+02   1.6500000000000000e+02   1.6500000000000000e+02   1.5900000000000000e+02   1.4600000000000000e+02   1.3000000000000000e+02   1.2100000000000000e+02   1.3200000000000000e+02   1.7100000000000000e+02   2.3400000000000000e+02   3.0700000000000000e+02   3.6900000000000000e+02   4.0500000000000000e+02   4.1000000000000000e+02   3.9000000000000000e+02   3.5900000000000000e+02   3.2600000000000000e+02   2.9800000000000000e+02   2.7600000000000000e+02   2.5900000000000000e+02   2.4500000000000000e+02   2.3200000000000000e+02   2.2100000000000000e+02   2.1000000000000000e+02   2.0200000000000000e+02   1.9400000000000000e+02   1.8800000000000000e+02   1.8200000000000000e+02   1.7700000000000000e+02   1.7200000000000000e+02   1.6800000000000000e+02   1.6500000000000000e+02   1.6200000000000000e+02   1.6100000000000000e+02   1.6000000000000000e+02   1.5900000000000000e+02   1.5900000000000000e+02   1.6000000000000000e+02   1.6000000000000000e+02   1.6100000000000000e+02   1.6200000000000000e+02   1.6300000000000000e+02   1.6500000000000000e+02   1.6600000000000000e+02   1.6700000000000000e+02   1.6700000000000000e+02   1.6700000000000000e+02   1.6700000000000000e+02   1.6700000000000000e+02   1.6800000000000000e+02   1.6900000000000000e+02   1.7000000000000000e+02   1.7100000000000000e+02   1.7200000000000000e+02   1.7200000000000000e+02   1.7200000000000000e+02   1.7300000000000000e+02   1.7300000000000000e+02   1.7200000000000000e+02   1.7200000000000000e+02   1.7200000000000000e+02   1.7200000000000000e+02   1.7200000000000000e+02   1.7200000000000000e+02   1.7200000000000000e+02   1.7100000000000000e+02   1.7100000000000000e+02   1.7000000000000000e+02   1.6900000000000000e+02   1.6800000000000000e+02   1.6700000000000000e+02   1.6700000000000000e+02   1.6800000000000000e+02   1.6900000000000000e+02   1.6900000000000000e+02   1.6700000000000000e+02   1.6400000000000000e+02   1.5800000000000000e+02   1.5000000000000000e+02   1.3900000000000000e+02   1.2700000000000000e+02   1.1500000000000000e+02   1.0600000000000000e+02   1.0000000000000000e+02   9.9000000000000000e+01   1.0100000000000000e+02   1.0600000000000000e+02   1.1400000000000000e+02   1.2200000000000000e+02   1.3100000000000000e+02   1.3900000000000000e+02   1.4600000000000000e+02   1.5100000000000000e+02   1.5600000000000000e+02   1.6000000000000000e+02   1.6400000000000000e+02   1.6700000000000000e+02   1.7000000000000000e+02   1.7200000000000000e+02   1.7400000000000000e+02   1.7500000000000000e+02   1.7600000000000000e+02   1.7600000000000000e+02   1.7600000000000000e+02   1.7600000000000000e+02   1.7600000000000000e+02   1.7500000000000000e+02   1.7300000000000000e+02   1.7100000000000000e+02   1.6900000000000000e+02   1.6800000000000000e+02   1.6900000000000000e+02   1.7000000000000000e+02   1.7200000000000000e+02   1.7200000000000000e+02   1.7100000000000000e+02   1.6900000000000000e+02   1.6500000000000000e+02   1.6200000000000000e+02   1.5900000000000000e+02   1.5800000000000000e+02   1.5800000000000000e+02   1.5900000000000000e+02   1.6000000000000000e+02   1.6000000000000000e+02   1.5900000000000000e+02   1.5700000000000000e+02   1.5500000000000000e+02   1.5100000000000000e+02   1.4900000000000000e+02   1.4700000000000000e+02   1.4700000000000000e+02   1.4700000000000000e+02   1.4600000000000000e+02   1.4600000000000000e+02   1.4400000000000000e+02   1.4300000000000000e+02   1.4100000000000000e+02   1.4000000000000000e+02   1.3900000000000000e+02   1.3800000000000000e+02   1.3700000000000000e+02   1.3500000000000000e+02   1.3300000000000000e+02   1.3100000000000000e+02   1.2800000000000000e+02   1.2600000000000000e+02   1.2500000000000000e+02   1.2400000000000000e+02   1.2300000000000000e+02   1.2200000000000000e+02   1.2000000000000000e+02   1.1800000000000000e+02   1.1600000000000000e+02   1.1400000000000000e+02   1.1200000000000000e+02   1.1100000000000000e+02   1.0900000000000000e+02   1.0800000000000000e+02   1.0700000000000000e+02   1.0500000000000000e+02   1.0400000000000000e+02   1.0200000000000000e+02   1.0100000000000000e+02   1.0000000000000000e+02   9.7000000000000000e+01   9.1000000000000000e+01   8.3000000000000000e+01   7.1000000000000000e+01   5.9000000000000000e+01   4.8000000000000000e+01   3.9000000000000000e+01   3.3000000000000000e+01   3.1000000000000000e+01   3.0000000000000000e+01   3.2000000000000000e+01   3.5000000000000000e+01   4.0000000000000000e+01   4.7000000000000000e+01   5.6000000000000000e+01   6.4000000000000000e+01   7.0000000000000000e+01   7.5000000000000000e+01   7.8000000000000000e+01   8.1000000000000000e+01   8.4000000000000000e+01   8.6000000000000000e+01   8.9000000000000000e+01   9.0000000000000000e+01   9.1000000000000000e+01   9.0000000000000000e+01   8.9000000000000000e+01   8.7000000000000000e+01   8.5000000000000000e+01   8.4000000000000000e+01   8.4000000000000000e+01   8.3000000000000000e+01   8.2000000000000000e+01   8.2000000000000000e+01   8.1000000000000000e+01   8.0000000000000000e+01   8.0000000000000000e+01   8.0000000000000000e+01   7.9000000000000000e+01   7.9000000000000000e+01   7.7000000000000000e+01   7.5000000000000000e+01   7.3000000000000000e+01   7.1000000000000000e+01   7.1000000000000000e+01   7.1000000000000000e+01   7.2000000000000000e+01   7.3000000000000000e+01   7.4000000000000000e+01   7.4000000000000000e+01   7.3000000000000000e+01   7.1000000000000000e+01   7.0000000000000000e+01   6.9000000000000000e+01   6.8000000000000000e+01   6.9000000000000000e+01   7.0000000000000000e+01   6.9000000000000000e+01   6.4000000000000000e+01   5.3000000000000000e+01   3.6000000000000000e+01   2.1000000000000000e+01   2.0000000000000000e+01   4.2000000000000000e+01   9.2000000000000000e+01   1.6100000000000000e+02   2.3100000000000000e+02   2.8200000000000000e+02   3.0200000000000000e+02   2.9500000000000000e+02   2.6800000000000000e+02   2.3400000000000000e+02   2.0300000000000000e+02   1.7600000000000000e+02   1.5400000000000000e+02   1.3600000000000000e+02   1.1900000000000000e+02   1.0500000000000000e+02   9.2000000000000000e+01   8.1000000000000000e+01   7.1000000000000000e+01   6.2000000000000000e+01   5.4000000000000000e+01   4.8000000000000000e+01   4.2000000000000000e+01   3.8000000000000000e+01   3.5000000000000000e+01   3.2000000000000000e+01   2.9000000000000000e+01   2.7000000000000000e+01   2.6000000000000000e+01   2.5000000000000000e+01   2.4000000000000000e+01   2.3000000000000000e+01   2.2000000000000000e+01   2.1000000000000000e+01   2.0000000000000000e+01   2.0000000000000000e+01   1.9000000000000000e+01   1.9000000000000000e+01   1.9000000000000000e+01   1.8000000000000000e+01   1.8000000000000000e+01   1.7000000000000000e+01   1.7000000000000000e+01   1.6000000000000000e+01   1.6000000000000000e+01   1.6000000000000000e+01   1.7000000000000000e+01   1.6000000000000000e+01   1.6000000000000000e+01   1.5000000000000000e+01   1.3000000000000000e+01   1.2000000000000000e+01   1.1000000000000000e+01   1.1000000000000000e+01   1.0000000000000000e+01   9.0000000000000000e+00   9.0000000000000000e+00   8.0000000000000000e+00   7.0000000000000000e+00   6.0000000000000000e+00   5.0000000000000000e+00   5.0000000000000000e+00   4.0000000000000000e+00   3.0000000000000000e+00   3.0000000000000000e+00   2.0000000000000000e+00   1.0000000000000000e+00  -1.0000000000000000e+00  -2.0000000000000000e+00  -5.0000000000000000e+00  -1.0000000000000000e+01  -1.8000000000000000e+01  -2.9000000000000000e+01  -4.2000000000000000e+01  -5.5000000000000000e+01  -6.7000000000000000e+01  -7.6000000000000000e+01  -7.9000000000000000e+01  -7.8000000000000000e+01  -7.2000000000000000e+01  -6.4000000000000000e+01  -5.5000000000000000e+01  -4.6000000000000000e+01  -3.7000000000000000e+01  -3.0000000000000000e+01  -2.3000000000000000e+01  -1.7000000000000000e+01  -1.1000000000000000e+01  -7.0000000000000000e+00  -3.0000000000000000e+00  -1.0000000000000000e+00   1.0000000000000000e+00   3.0000000000000000e+00   4.0000000000000000e+00   5.0000000000000000e+00   6.0000000000000000e+00   7.0000000000000000e+00   7.0000000000000000e+00   8.0000000000000000e+00   8.0000000000000000e+00   9.0000000000000000e+00   1.0000000000000000e+01   1.0000000000000000e+01   1.1000000000000000e+01   1.1000000000000000e+01   1.1000000000000000e+01   1.2000000000000000e+01   1.3000000000000000e+01   1.4000000000000000e+01   1.5000000000000000e+01   1.5000000000000000e+01   1.6000000000000000e+01   1.6000000000000000e+01   1.7000000000000000e+01   1.8000000000000000e+01   1.9000000000000000e+01   2.1000000000000000e+01   2.1000000000000000e+01   2.1000000000000000e+01   2.1000000000000000e+01   2.0000000000000000e+01   2.0000000000000000e+01   2.0000000000000000e+01   2.1000000000000000e+01   2.3000000000000000e+01   2.4000000000000000e+01   2.3000000000000000e+01   1.9000000000000000e+01   1.3000000000000000e+01   6.0000000000000000e+00   2.0000000000000000e+00   2.0000000000000000e+00   8.0000000000000000e+00   1.7000000000000000e+01   2.6000000000000000e+01   3.2000000000000000e+01   3.2000000000000000e+01   2.9000000000000000e+01   2.3000000000000000e+01   1.6000000000000000e+01   1.2000000000000000e+01   1.0000000000000000e+01   1.2000000000000000e+01   1.6000000000000000e+01   2.0000000000000000e+01   2.4000000000000000e+01   2.8000000000000000e+01   3.2000000000000000e+01   3.7000000000000000e+01   3.9000000000000000e+01   3.9000000000000000e+01   3.5000000000000000e+01   2.9000000000000000e+01   2.3000000000000000e+01   1.7000000000000000e+01   1.4000000000000000e+01   1.2000000000000000e+01   1.2000000000000000e+01   1.0000000000000000e+01   6.0000000000000000e+00  -2.0000000000000000e+00  -1.1000000000000000e+01  -2.1000000000000000e+01  -2.9000000000000000e+01  -3.4000000000000000e+01  -3.6000000000000000e+01  -3.4000000000000000e+01  -3.0000000000000000e+01  -2.5000000000000000e+01  -1.7000000000000000e+01  -9.0000000000000000e+00   1.0000000000000000e+00   1.2000000000000000e+01   2.3000000000000000e+01   3.4000000000000000e+01   4.3000000000000000e+01   5.1000000000000000e+01   5.6000000000000000e+01   5.9000000000000000e+01   6.0000000000000000e+01   6.1000000000000000e+01   6.2000000000000000e+01   6.3000000000000000e+01   6.5000000000000000e+01   6.8000000000000000e+01   7.1000000000000000e+01   7.5000000000000000e+01   7.8000000000000000e+01   7.9000000000000000e+01   7.9000000000000000e+01   7.8000000000000000e+01   7.9000000000000000e+01   8.1000000000000000e+01   8.3000000000000000e+01   8.6000000000000000e+01   8.8000000000000000e+01   8.8000000000000000e+01   8.8000000000000000e+01   8.8000000000000000e+01   8.8000000000000000e+01   8.8000000000000000e+01   9.0000000000000000e+01   9.2000000000000000e+01   9.4000000000000000e+01   9.6000000000000000e+01   9.9000000000000000e+01   1.0300000000000000e+02   1.0800000000000000e+02   1.1300000000000000e+02   1.1800000000000000e+02   1.2000000000000000e+02   1.2000000000000000e+02   1.1900000000000000e+02   1.1900000000000000e+02   1.2200000000000000e+02   1.2600000000000000e+02   1.2700000000000000e+02   1.2000000000000000e+02   1.0800000000000000e+02   9.8000000000000000e+01   1.0400000000000000e+02   1.3400000000000000e+02   1.8700000000000000e+02   2.5200000000000000e+02   3.0800000000000000e+02   3.4200000000000000e+02   3.4800000000000000e+02   3.3200000000000000e+02   3.0600000000000000e+02   2.7900000000000000e+02   2.5600000000000000e+02   2.3700000000000000e+02   2.2200000000000000e+02   2.1000000000000000e+02   2.0000000000000000e+02   1.9200000000000000e+02   1.8400000000000000e+02   1.7500000000000000e+02   1.6400000000000000e+02   1.5400000000000000e+02   1.4600000000000000e+02   1.4000000000000000e+02   1.3700000000000000e+02   1.3600000000000000e+02   1.3400000000000000e+02   1.3200000000000000e+02   1.2800000000000000e+02   1.2600000000000000e+02   1.2500000000000000e+02   1.2500000000000000e+02   1.2500000000000000e+02   1.2300000000000000e+02   1.2100000000000000e+02   1.2000000000000000e+02   1.2300000000000000e+02   1.3000000000000000e+02   1.3700000000000000e+02   1.4200000000000000e+02   1.4500000000000000e+02   1.4400000000000000e+02   1.4100000000000000e+02   1.3800000000000000e+02   1.3600000000000000e+02   1.3400000000000000e+02   1.3000000000000000e+02   1.2600000000000000e+02   1.2300000000000000e+02   1.2400000000000000e+02   1.3000000000000000e+02   1.3800000000000000e+02   1.4500000000000000e+02   1.5000000000000000e+02   1.5100000000000000e+02   1.5000000000000000e+02   1.5100000000000000e+02   1.5500000000000000e+02   1.6100000000000000e+02   1.6700000000000000e+02   1.7300000000000000e+02   1.7700000000000000e+02   1.8000000000000000e+02   1.8300000000000000e+02   1.8700000000000000e+02   1.9100000000000000e+02   1.9300000000000000e+02   1.9200000000000000e+02   1.9100000000000000e+02   1.9100000000000000e+02   1.9500000000000000e+02   1.9800000000000000e+02   1.9800000000000000e+02   1.9000000000000000e+02   1.7300000000000000e+02   1.5400000000000000e+02   1.4200000000000000e+02   1.4100000000000000e+02   1.5300000000000000e+02   1.7300000000000000e+02   1.9200000000000000e+02   2.0600000000000000e+02   2.1300000000000000e+02   2.1600000000000000e+02   2.1600000000000000e+02   2.1600000000000000e+02   2.1800000000000000e+02   2.2200000000000000e+02   2.2900000000000000e+02   2.3900000000000000e+02   2.5000000000000000e+02   2.5800000000000000e+02   2.6200000000000000e+02   2.6100000000000000e+02   2.5700000000000000e+02   2.5300000000000000e+02   2.5000000000000000e+02   2.5100000000000000e+02   2.5400000000000000e+02   2.5700000000000000e+02   2.5700000000000000e+02   2.5500000000000000e+02   2.5200000000000000e+02   2.5000000000000000e+02   2.5100000000000000e+02   2.5200000000000000e+02   2.5400000000000000e+02   2.5300000000000000e+02   2.5100000000000000e+02   2.4700000000000000e+02   2.4200000000000000e+02   2.3900000000000000e+02   2.3800000000000000e+02   2.3900000000000000e+02   2.4100000000000000e+02   2.4500000000000000e+02   2.4900000000000000e+02   2.5200000000000000e+02   2.5400000000000000e+02   2.5500000000000000e+02   2.5300000000000000e+02   2.4700000000000000e+02   2.4000000000000000e+02   2.3300000000000000e+02   2.2600000000000000e+02   2.2200000000000000e+02   2.1900000000000000e+02   2.1700000000000000e+02   2.1700000000000000e+02   2.1900000000000000e+02   2.2200000000000000e+02   2.2700000000000000e+02   2.3300000000000000e+02   2.3800000000000000e+02   2.4000000000000000e+02   2.4000000000000000e+02   2.3700000000000000e+02   2.3200000000000000e+02   2.2800000000000000e+02   2.2300000000000000e+02   2.1900000000000000e+02   2.1600000000000000e+02   2.1600000000000000e+02   2.1600000000000000e+02   2.1600000000000000e+02   2.1200000000000000e+02   2.0700000000000000e+02   2.0400000000000000e+02   2.0400000000000000e+02   2.0800000000000000e+02   2.1200000000000000e+02   2.1300000000000000e+02   2.1100000000000000e+02   2.0600000000000000e+02   1.9900000000000000e+02   1.9500000000000000e+02   1.9300000000000000e+02   1.9300000000000000e+02   1.9200000000000000e+02   1.8700000000000000e+02   1.7600000000000000e+02   1.6100000000000000e+02   1.4500000000000000e+02   1.3400000000000000e+02   1.2900000000000000e+02   1.3000000000000000e+02   1.3500000000000000e+02   1.4200000000000000e+02   1.4800000000000000e+02   1.5300000000000000e+02   1.5800000000000000e+02   1.6400000000000000e+02   1.7100000000000000e+02   1.7900000000000000e+02   1.8800000000000000e+02   1.9600000000000000e+02   2.0200000000000000e+02   2.0500000000000000e+02   2.0400000000000000e+02   2.0000000000000000e+02   1.9400000000000000e+02   1.9000000000000000e+02   1.9000000000000000e+02   1.9300000000000000e+02   1.9800000000000000e+02   2.0000000000000000e+02   2.0000000000000000e+02   1.9600000000000000e+02   1.9200000000000000e+02   1.9100000000000000e+02   1.9400000000000000e+02   2.0200000000000000e+02   2.1200000000000000e+02   2.2200000000000000e+02   2.2600000000000000e+02   2.2400000000000000e+02   2.1700000000000000e+02   2.0900000000000000e+02   2.0500000000000000e+02   2.0400000000000000e+02   2.0600000000000000e+02   2.0900000000000000e+02   2.0900000000000000e+02   2.0700000000000000e+02   2.0100000000000000e+02   1.9200000000000000e+02   1.8400000000000000e+02   1.7800000000000000e+02   1.7500000000000000e+02   1.7300000000000000e+02   1.7000000000000000e+02   1.6200000000000000e+02   1.5200000000000000e+02   1.4000000000000000e+02   1.3100000000000000e+02   1.2400000000000000e+02   1.1600000000000000e+02   1.0500000000000000e+02   9.4000000000000000e+01   9.1000000000000000e+01   1.0800000000000000e+02   1.5000000000000000e+02   2.1100000000000000e+02   2.7400000000000000e+02   3.2100000000000000e+02   3.4100000000000000e+02   3.3400000000000000e+02   3.0800000000000000e+02   2.7300000000000000e+02   2.3800000000000000e+02   2.0800000000000000e+02   1.8400000000000000e+02   1.6400000000000000e+02   1.4700000000000000e+02   1.3200000000000000e+02   1.1800000000000000e+02   1.0600000000000000e+02   9.9000000000000000e+01   9.6000000000000000e+01   9.7000000000000000e+01   1.0000000000000000e+02   9.8000000000000000e+01   8.8000000000000000e+01   7.2000000000000000e+01   5.5000000000000000e+01   4.3000000000000000e+01   4.1000000000000000e+01   4.6000000000000000e+01   5.3000000000000000e+01   6.0000000000000000e+01   6.2000000000000000e+01   5.8000000000000000e+01   4.9000000000000000e+01   3.7000000000000000e+01   2.7000000000000000e+01   2.1000000000000000e+01   2.2000000000000000e+01   2.8000000000000000e+01   3.4000000000000000e+01   3.9000000000000000e+01   3.8000000000000000e+01   3.5000000000000000e+01   3.2000000000000000e+01   3.0000000000000000e+01   3.2000000000000000e+01   3.5000000000000000e+01   3.8000000000000000e+01   3.7000000000000000e+01   3.3000000000000000e+01   2.5000000000000000e+01   1.4000000000000000e+01   1.0000000000000000e+00  -1.1000000000000000e+01  -2.2000000000000000e+01  -2.9000000000000000e+01  -3.1000000000000000e+01  -3.0000000000000000e+01  -3.0000000000000000e+01  -3.3000000000000000e+01  -3.8000000000000000e+01  -4.4000000000000000e+01  -4.9000000000000000e+01  -5.3000000000000000e+01  -5.8000000000000000e+01  -6.6000000000000000e+01  -7.7000000000000000e+01  -8.7000000000000000e+01  -9.3000000000000000e+01  -9.4000000000000000e+01  -9.2000000000000000e+01  -9.3000000000000000e+01  -1.0000000000000000e+02  -1.1100000000000000e+02  -1.2400000000000000e+02  -1.3300000000000000e+02  -1.3500000000000000e+02  -1.3300000000000000e+02  -1.2700000000000000e+02  -1.1900000000000000e+02  -1.0800000000000000e+02  -9.6000000000000000e+01  -8.1000000000000000e+01  -6.5000000000000000e+01  -4.9000000000000000e+01  -3.6000000000000000e+01  -2.4000000000000000e+01  -1.3000000000000000e+01  -2.0000000000000000e+00   1.0000000000000000e+01   2.4000000000000000e+01   3.7000000000000000e+01   4.8000000000000000e+01   5.6000000000000000e+01   6.2000000000000000e+01   6.4000000000000000e+01   6.2000000000000000e+01   5.8000000000000000e+01   5.3000000000000000e+01   5.0000000000000000e+01   5.2000000000000000e+01   5.8000000000000000e+01   6.5000000000000000e+01   6.8000000000000000e+01   6.5000000000000000e+01   6.0000000000000000e+01   5.6000000000000000e+01   5.4000000000000000e+01   5.5000000000000000e+01   5.5000000000000000e+01   5.4000000000000000e+01   5.0000000000000000e+01   4.6000000000000000e+01   4.5000000000000000e+01   4.8000000000000000e+01   5.4000000000000000e+01   6.1000000000000000e+01   6.6000000000000000e+01   6.9000000000000000e+01   7.1000000000000000e+01   7.0000000000000000e+01   6.9000000000000000e+01   6.6000000000000000e+01   6.1000000000000000e+01   5.7000000000000000e+01   5.6000000000000000e+01   5.7000000000000000e+01   6.0000000000000000e+01   6.3000000000000000e+01   6.6000000000000000e+01   7.0000000000000000e+01   7.7000000000000000e+01   8.4000000000000000e+01   9.0000000000000000e+01   9.1000000000000000e+01   8.8000000000000000e+01   8.3000000000000000e+01   8.0000000000000000e+01   7.9000000000000000e+01   8.1000000000000000e+01   8.6000000000000000e+01   9.1000000000000000e+01   9.6000000000000000e+01   9.9000000000000000e+01   9.9000000000000000e+01   9.6000000000000000e+01   9.3000000000000000e+01   9.3000000000000000e+01   9.8000000000000000e+01   1.0500000000000000e+02   1.1000000000000000e+02   1.1100000000000000e+02   1.0800000000000000e+02   1.0400000000000000e+02   1.0100000000000000e+02   1.0000000000000000e+02   9.8000000000000000e+01   9.1000000000000000e+01   8.2000000000000000e+01   7.3000000000000000e+01   6.8000000000000000e+01   7.1000000000000000e+01   8.1000000000000000e+01   9.4000000000000000e+01   1.0800000000000000e+02   1.2000000000000000e+02   1.2900000000000000e+02   1.3500000000000000e+02   1.3600000000000000e+02   1.3400000000000000e+02   1.3000000000000000e+02   1.2600000000000000e+02   1.2600000000000000e+02   1.3400000000000000e+02   1.4800000000000000e+02   1.6200000000000000e+02   1.7100000000000000e+02   1.7100000000000000e+02   1.6500000000000000e+02   1.5800000000000000e+02   1.5200000000000000e+02   1.5000000000000000e+02   1.4800000000000000e+02   1.4500000000000000e+02   1.4100000000000000e+02   1.3900000000000000e+02   1.4000000000000000e+02   1.4200000000000000e+02   1.4300000000000000e+02   1.4000000000000000e+02   1.3400000000000000e+02   1.3100000000000000e+02   1.3300000000000000e+02   1.3900000000000000e+02   1.4300000000000000e+02   1.4100000000000000e+02   1.2800000000000000e+02   1.0800000000000000e+02   8.5000000000000000e+01   6.3000000000000000e+01   4.7000000000000000e+01   3.8000000000000000e+01   3.6000000000000000e+01   4.2000000000000000e+01   5.3000000000000000e+01   6.5000000000000000e+01   7.4000000000000000e+01   7.6000000000000000e+01   7.3000000000000000e+01   6.5000000000000000e+01   5.6000000000000000e+01   4.5000000000000000e+01   3.5000000000000000e+01   2.7000000000000000e+01   2.9000000000000000e+01   4.8000000000000000e+01   8.6000000000000000e+01   1.3600000000000000e+02   1.8600000000000000e+02   2.2300000000000000e+02   2.3800000000000000e+02   2.3300000000000000e+02   2.1300000000000000e+02   1.8600000000000000e+02   1.5800000000000000e+02   1.3500000000000000e+02   1.2000000000000000e+02   1.1200000000000000e+02   1.0900000000000000e+02   1.0500000000000000e+02   1.0000000000000000e+02   9.3000000000000000e+01   8.4000000000000000e+01   7.3000000000000000e+01   6.1000000000000000e+01   5.1000000000000000e+01   4.5000000000000000e+01   4.2000000000000000e+01   4.2000000000000000e+01   4.2000000000000000e+01   4.1000000000000000e+01   3.6000000000000000e+01   3.1000000000000000e+01   2.7000000000000000e+01   2.4000000000000000e+01   2.4000000000000000e+01   2.4000000000000000e+01   2.2000000000000000e+01   1.9000000000000000e+01   1.6000000000000000e+01   1.4000000000000000e+01   1.3000000000000000e+01   1.5000000000000000e+01   1.7000000000000000e+01   1.9000000000000000e+01   2.0000000000000000e+01   2.2000000000000000e+01   2.4000000000000000e+01   2.6000000000000000e+01   2.8000000000000000e+01   3.0000000000000000e+01   3.0000000000000000e+01   2.8000000000000000e+01   2.3000000000000000e+01   1.7000000000000000e+01   1.2000000000000000e+01   9.0000000000000000e+00   8.0000000000000000e+00   7.0000000000000000e+00   6.0000000000000000e+00   3.0000000000000000e+00  -1.0000000000000000e+00  -5.0000000000000000e+00  -7.0000000000000000e+00  -8.0000000000000000e+00  -7.0000000000000000e+00  -7.0000000000000000e+00  -6.0000000000000000e+00  -4.0000000000000000e+00  -2.0000000000000000e+00  -1.0000000000000000e+00  -3.0000000000000000e+00  -7.0000000000000000e+00  -1.3000000000000000e+01  -1.9000000000000000e+01  -2.6000000000000000e+01  -3.3000000000000000e+01  -4.2000000000000000e+01  -5.3000000000000000e+01  -6.7000000000000000e+01  -8.0000000000000000e+01  -8.8000000000000000e+01  -9.0000000000000000e+01  -8.6000000000000000e+01  -7.9000000000000000e+01  -7.3000000000000000e+01  -7.0000000000000000e+01  -6.6000000000000000e+01  -6.2000000000000000e+01  -5.5000000000000000e+01  -4.8000000000000000e+01  -4.3000000000000000e+01  -4.0000000000000000e+01  -4.0000000000000000e+01  -4.0000000000000000e+01  -4.0000000000000000e+01  -3.9000000000000000e+01  -3.8000000000000000e+01  -3.6000000000000000e+01  -3.3000000000000000e+01  -3.1000000000000000e+01  -3.1000000000000000e+01  -3.4000000000000000e+01  -3.9000000000000000e+01  -4.3000000000000000e+01  -4.6000000000000000e+01  -4.8000000000000000e+01  -4.9000000000000000e+01  -5.1000000000000000e+01  -5.3000000000000000e+01  -5.4000000000000000e+01  -5.5000000000000000e+01  -5.4000000000000000e+01  -5.2000000000000000e+01  -5.1000000000000000e+01  -5.1000000000000000e+01  -5.2000000000000000e+01  -5.6000000000000000e+01  -6.1000000000000000e+01  -6.4000000000000000e+01  -6.6000000000000000e+01  -6.5000000000000000e+01  -6.5000000000000000e+01  -6.5000000000000000e+01  -6.8000000000000000e+01  -7.1000000000000000e+01  -7.6000000000000000e+01  -7.9000000000000000e+01  -8.2000000000000000e+01  -8.5000000000000000e+01  -8.9000000000000000e+01  -9.2000000000000000e+01  -9.4000000000000000e+01  -9.5000000000000000e+01  -9.5000000000000000e+01  -9.6000000000000000e+01  -9.9000000000000000e+01  -1.0300000000000000e+02  -1.0600000000000000e+02  -1.0600000000000000e+02  -1.0400000000000000e+02  -1.0100000000000000e+02  -1.0100000000000000e+02  -1.0300000000000000e+02  -1.0900000000000000e+02  -1.1600000000000000e+02  -1.2300000000000000e+02  -1.2900000000000000e+02  -1.3500000000000000e+02  -1.4200000000000000e+02  -1.5100000000000000e+02  -1.5900000000000000e+02  -1.6600000000000000e+02  -1.7000000000000000e+02  -1.7200000000000000e+02  -1.7300000000000000e+02  -1.7100000000000000e+02  -1.6900000000000000e+02  -1.6500000000000000e+02  -1.6000000000000000e+02  -1.5400000000000000e+02  -1.4800000000000000e+02  -1.4000000000000000e+02  -1.3300000000000000e+02  -1.2600000000000000e+02  -1.2000000000000000e+02  -1.1700000000000000e+02  -1.1500000000000000e+02  -1.1700000000000000e+02  -1.2000000000000000e+02  -1.2500000000000000e+02  -1.2700000000000000e+02  -1.2700000000000000e+02  -1.2500000000000000e+02  -1.2100000000000000e+02  -1.1700000000000000e+02  -1.1400000000000000e+02  -1.1200000000000000e+02  -1.1200000000000000e+02  -1.1300000000000000e+02  -1.1600000000000000e+02  -1.1800000000000000e+02  -1.1800000000000000e+02  -1.1700000000000000e+02  -1.1500000000000000e+02  -1.1200000000000000e+02  -1.0900000000000000e+02  -1.0700000000000000e+02  -1.0600000000000000e+02  -1.0600000000000000e+02  -1.0700000000000000e+02  -1.0800000000000000e+02  -1.1000000000000000e+02  -1.1100000000000000e+02  -1.1300000000000000e+02  -1.1200000000000000e+02  -1.1000000000000000e+02  -1.0600000000000000e+02  -1.0200000000000000e+02  -9.8000000000000000e+01  -9.4000000000000000e+01  -9.2000000000000000e+01  -9.2000000000000000e+01  -9.5000000000000000e+01  -1.0000000000000000e+02  -1.1000000000000000e+02  -1.2200000000000000e+02  -1.3300000000000000e+02  -1.3700000000000000e+02  -1.2500000000000000e+02  -9.3000000000000000e+01  -4.4000000000000000e+01   1.0000000000000000e+01   5.6000000000000000e+01   8.1000000000000000e+01   8.5000000000000000e+01   7.1000000000000000e+01   4.7000000000000000e+01   2.1000000000000000e+01  -2.0000000000000000e+00  -2.0000000000000000e+01  -3.0000000000000000e+01  -3.6000000000000000e+01  -3.9000000000000000e+01  -4.3000000000000000e+01  -5.0000000000000000e+01  -5.9000000000000000e+01  -6.9000000000000000e+01  -7.9000000000000000e+01  -8.5000000000000000e+01  -8.8000000000000000e+01  -8.6000000000000000e+01  -8.1000000000000000e+01  -7.5000000000000000e+01  -7.1000000000000000e+01  -7.1000000000000000e+01  -7.2000000000000000e+01  -7.3000000000000000e+01  -7.0000000000000000e+01  -6.2000000000000000e+01  -5.1000000000000000e+01  -4.0000000000000000e+01  -3.0000000000000000e+01  -2.4000000000000000e+01  -1.9000000000000000e+01  -1.5000000000000000e+01  -1.0000000000000000e+01  -3.0000000000000000e+00   5.0000000000000000e+00   1.4000000000000000e+01   2.1000000000000000e+01   2.4000000000000000e+01   2.2000000000000000e+01   1.7000000000000000e+01   1.2000000000000000e+01   1.1000000000000000e+01   1.6000000000000000e+01   2.4000000000000000e+01   3.0000000000000000e+01   2.9000000000000000e+01   2.3000000000000000e+01   2.0000000000000000e+01   2.3000000000000000e+01   3.3000000000000000e+01   4.5000000000000000e+01   5.0000000000000000e+01   4.7000000000000000e+01   3.6000000000000000e+01   1.9000000000000000e+01   2.0000000000000000e+00  -1.3000000000000000e+01  -2.1000000000000000e+01  -1.7000000000000000e+01  -5.0000000000000000e+00   1.4000000000000000e+01   3.0000000000000000e+01   3.8000000000000000e+01   3.5000000000000000e+01   2.2000000000000000e+01   6.0000000000000000e+00  -8.0000000000000000e+00  -1.5000000000000000e+01  -1.5000000000000000e+01  -1.4000000000000000e+01  -1.4000000000000000e+01  -1.6000000000000000e+01  -1.6000000000000000e+01  -1.4000000000000000e+01  -9.0000000000000000e+00  -3.0000000000000000e+00   3.0000000000000000e+00   1.0000000000000000e+01   1.7000000000000000e+01   2.2000000000000000e+01   2.3000000000000000e+01   2.1000000000000000e+01   2.1000000000000000e+01   2.8000000000000000e+01   4.1000000000000000e+01   5.4000000000000000e+01   6.1000000000000000e+01   6.2000000000000000e+01   6.0000000000000000e+01   6.2000000000000000e+01   7.0000000000000000e+01   7.9000000000000000e+01   8.4000000000000000e+01   8.4000000000000000e+01   7.9000000000000000e+01   7.5000000000000000e+01   7.4000000000000000e+01   7.6000000000000000e+01   8.0000000000000000e+01   8.3000000000000000e+01   8.4000000000000000e+01   8.2000000000000000e+01   7.8000000000000000e+01   7.3000000000000000e+01   7.0000000000000000e+01   7.0000000000000000e+01   7.5000000000000000e+01   8.4000000000000000e+01   9.7000000000000000e+01   1.1000000000000000e+02   1.2100000000000000e+02   1.2700000000000000e+02   1.2600000000000000e+02   1.2100000000000000e+02   1.1100000000000000e+02   9.8000000000000000e+01   8.3000000000000000e+01   6.6000000000000000e+01   4.9000000000000000e+01   3.4000000000000000e+01   2.2000000000000000e+01   1.6000000000000000e+01   1.4000000000000000e+01   1.5000000000000000e+01   1.3000000000000000e+01   4.0000000000000000e+00  -1.4000000000000000e+01  -3.7000000000000000e+01  -5.7000000000000000e+01  -6.8000000000000000e+01  -6.7000000000000000e+01  -5.6000000000000000e+01  -4.2000000000000000e+01  -3.3000000000000000e+01  -3.2000000000000000e+01  -3.9000000000000000e+01  -5.0000000000000000e+01  -6.1000000000000000e+01  -6.8000000000000000e+01  -7.0000000000000000e+01  -6.8000000000000000e+01  -6.5000000000000000e+01  -6.2000000000000000e+01  -6.0000000000000000e+01  -6.0000000000000000e+01  -6.1000000000000000e+01  -6.0000000000000000e+01  -5.6000000000000000e+01  -4.8000000000000000e+01  -3.9000000000000000e+01  -3.2000000000000000e+01  -2.9000000000000000e+01  -2.7000000000000000e+01  -2.6000000000000000e+01  -2.1000000000000000e+01  -1.3000000000000000e+01  -3.0000000000000000e+00   6.0000000000000000e+00   1.1000000000000000e+01   1.0000000000000000e+01   7.0000000000000000e+00   4.0000000000000000e+00   6.0000000000000000e+00   1.5000000000000000e+01   2.9000000000000000e+01   4.4000000000000000e+01   5.5000000000000000e+01   5.8000000000000000e+01   5.3000000000000000e+01   4.4000000000000000e+01   3.2000000000000000e+01   2.2000000000000000e+01   1.3000000000000000e+01   8.0000000000000000e+00   7.0000000000000000e+00   1.0000000000000000e+01   1.5000000000000000e+01   2.1000000000000000e+01   2.5000000000000000e+01   2.7000000000000000e+01   2.9000000000000000e+01   3.3000000000000000e+01   4.0000000000000000e+01   4.5000000000000000e+01   4.7000000000000000e+01   4.2000000000000000e+01   3.3000000000000000e+01   2.3000000000000000e+01   1.8000000000000000e+01   1.7000000000000000e+01   1.6000000000000000e+01   1.0000000000000000e+01  -1.0000000000000000e+00  -9.0000000000000000e+00  -4.0000000000000000e+00   2.4000000000000000e+01   7.1000000000000000e+01   1.2700000000000000e+02   1.7700000000000000e+02   2.1100000000000000e+02   2.2600000000000000e+02   2.2500000000000000e+02   2.1100000000000000e+02   1.8800000000000000e+02   1.5900000000000000e+02   1.2900000000000000e+02   1.0500000000000000e+02   9.0000000000000000e+01   8.5000000000000000e+01   8.5000000000000000e+01   8.5000000000000000e+01   7.8000000000000000e+01   6.5000000000000000e+01   5.3000000000000000e+01   4.5000000000000000e+01   4.1000000000000000e+01   4.0000000000000000e+01   3.8000000000000000e+01   3.5000000000000000e+01   3.3000000000000000e+01   3.7000000000000000e+01   4.6000000000000000e+01   5.7000000000000000e+01   6.4000000000000000e+01   6.3000000000000000e+01   5.2000000000000000e+01   3.6000000000000000e+01   2.0000000000000000e+01   9.0000000000000000e+00   7.0000000000000000e+00   1.2000000000000000e+01   2.1000000000000000e+01   3.2000000000000000e+01   4.0000000000000000e+01   4.3000000000000000e+01   4.1000000000000000e+01   3.5000000000000000e+01   2.8000000000000000e+01   2.3000000000000000e+01   2.4000000000000000e+01   3.2000000000000000e+01   4.2000000000000000e+01   5.0000000000000000e+01   5.2000000000000000e+01   4.5000000000000000e+01   3.3000000000000000e+01   2.1000000000000000e+01   1.0000000000000000e+01   5.0000000000000000e+00   4.0000000000000000e+00   8.0000000000000000e+00   1.6000000000000000e+01   2.4000000000000000e+01   2.9000000000000000e+01   2.8000000000000000e+01   2.4000000000000000e+01   2.0000000000000000e+01   2.0000000000000000e+01   2.3000000000000000e+01   2.7000000000000000e+01   3.0000000000000000e+01   3.0000000000000000e+01   2.6000000000000000e+01   1.9000000000000000e+01   1.0000000000000000e+01  -2.0000000000000000e+00  -1.4000000000000000e+01  -2.3000000000000000e+01  -3.0000000000000000e+01  -3.5000000000000000e+01  -4.2000000000000000e+01  -5.0000000000000000e+01  -5.6000000000000000e+01  -5.7000000000000000e+01  -5.3000000000000000e+01  -4.3000000000000000e+01  -2.8000000000000000e+01  -1.4000000000000000e+01  -2.0000000000000000e+00   5.0000000000000000e+00   5.0000000000000000e+00   2.0000000000000000e+00  -2.0000000000000000e+00  -5.0000000000000000e+00  -3.0000000000000000e+00   2.0000000000000000e+00   1.0000000000000000e+01   1.7000000000000000e+01   2.0000000000000000e+01   1.8000000000000000e+01   1.3000000000000000e+01   6.0000000000000000e+00   1.0000000000000000e+00  -1.0000000000000000e+00  -1.0000000000000000e+00   1.0000000000000000e+00   3.0000000000000000e+00   6.0000000000000000e+00   9.0000000000000000e+00   1.0000000000000000e+01   5.0000000000000000e+00  -4.0000000000000000e+00  -1.7000000000000000e+01  -2.8000000000000000e+01  -3.5000000000000000e+01  -3.5000000000000000e+01  -3.0000000000000000e+01  -2.3000000000000000e+01  -1.7000000000000000e+01  -1.3000000000000000e+01  -1.2000000000000000e+01  -1.1000000000000000e+01  -1.0000000000000000e+01  -7.0000000000000000e+00  -4.0000000000000000e+00  -4.0000000000000000e+00  -9.0000000000000000e+00  -1.8000000000000000e+01  -2.6000000000000000e+01  -3.2000000000000000e+01  -3.6000000000000000e+01  -4.0000000000000000e+01  -4.5000000000000000e+01  -4.9000000000000000e+01  -4.8000000000000000e+01  -4.1000000000000000e+01  -3.3000000000000000e+01  -3.3000000000000000e+01  -4.6000000000000000e+01  -7.1000000000000000e+01  -9.7000000000000000e+01  -1.1400000000000000e+02  -1.1500000000000000e+02  -1.0300000000000000e+02  -8.6000000000000000e+01  -7.0000000000000000e+01  -5.6000000000000000e+01  -3.9000000000000000e+01  -1.2000000000000000e+01   3.3000000000000000e+01   9.5000000000000000e+01   1.6700000000000000e+02   2.3600000000000000e+02   2.9200000000000000e+02   3.2800000000000000e+02   3.4800000000000000e+02   3.6000000000000000e+02   3.7600000000000000e+02   4.0500000000000000e+02   4.4700000000000000e+02   4.9600000000000000e+02   5.4100000000000000e+02   5.7300000000000000e+02   5.8700000000000000e+02   5.9000000000000000e+02   5.9300000000000000e+02   5.9800000000000000e+02   6.0200000000000000e+02   5.9400000000000000e+02   5.6500000000000000e+02   5.1700000000000000e+02   4.6000000000000000e+02   4.0800000000000000e+02   3.7100000000000000e+02   3.5000000000000000e+02   3.4100000000000000e+02   3.3900000000000000e+02   3.4200000000000000e+02   3.4800000000000000e+02   3.5500000000000000e+02   3.6000000000000000e+02   3.6400000000000000e+02   3.7200000000000000e+02   3.9000000000000000e+02   4.2100000000000000e+02   4.6100000000000000e+02   5.0000000000000000e+02   5.3100000000000000e+02   5.5600000000000000e+02   5.7700000000000000e+02   6.0100000000000000e+02   6.2700000000000000e+02   6.5500000000000000e+02   6.8200000000000000e+02   7.0700000000000000e+02   7.3200000000000000e+02   7.5300000000000000e+02   7.7100000000000000e+02   7.8500000000000000e+02   7.9800000000000000e+02   8.1100000000000000e+02   8.2900000000000000e+02   8.5500000000000000e+02   8.9300000000000000e+02   9.4500000000000000e+02   1.0070000000000000e+03   1.0710000000000000e+03   1.1260000000000000e+03   1.1620000000000000e+03   1.1810000000000000e+03   1.1840000000000000e+03   1.1760000000000000e+03   1.1560000000000000e+03   1.1260000000000000e+03   1.0870000000000000e+03   1.0410000000000000e+03   9.9500000000000000e+02   9.5000000000000000e+02   9.0900000000000000e+02   8.7200000000000000e+02   8.3900000000000000e+02   8.1000000000000000e+02   7.8700000000000000e+02   7.6800000000000000e+02   7.5100000000000000e+02   7.3100000000000000e+02   7.0900000000000000e+02   6.8300000000000000e+02   6.5500000000000000e+02   6.2500000000000000e+02   5.9300000000000000e+02   5.5600000000000000e+02   5.1300000000000000e+02   4.6100000000000000e+02   4.0100000000000000e+02   3.4000000000000000e+02   2.8400000000000000e+02   2.4000000000000000e+02   2.0500000000000000e+02   1.7100000000000000e+02   1.2900000000000000e+02   7.7000000000000000e+01   2.2000000000000000e+01  -2.8000000000000000e+01  -6.8000000000000000e+01  -1.0100000000000000e+02  -1.3100000000000000e+02  -1.6200000000000000e+02  -1.9300000000000000e+02  -2.2000000000000000e+02  -2.4000000000000000e+02  -2.5300000000000000e+02  -2.5700000000000000e+02  -2.5700000000000000e+02  -2.5600000000000000e+02  -2.6200000000000000e+02  -2.7700000000000000e+02  -3.0100000000000000e+02  -3.2600000000000000e+02  -3.4300000000000000e+02  -3.4500000000000000e+02  -3.3400000000000000e+02  -3.1900000000000000e+02  -3.0900000000000000e+02  -3.1200000000000000e+02  -3.2600000000000000e+02  -3.4700000000000000e+02  -3.7100000000000000e+02  -3.9300000000000000e+02  -4.1100000000000000e+02  -4.2400000000000000e+02  -4.3500000000000000e+02  -4.4500000000000000e+02  -4.5600000000000000e+02  -4.7100000000000000e+02  -4.8900000000000000e+02  -5.1000000000000000e+02  -5.3200000000000000e+02  -5.5400000000000000e+02  -5.7400000000000000e+02  -5.9100000000000000e+02  -6.0500000000000000e+02  -6.1400000000000000e+02  -6.1800000000000000e+02  -6.1900000000000000e+02  -6.1800000000000000e+02  -6.1800000000000000e+02  -6.2100000000000000e+02  -6.2400000000000000e+02  -6.2700000000000000e+02  -6.2800000000000000e+02  -6.2900000000000000e+02  -6.2900000000000000e+02  -6.3000000000000000e+02  -6.3000000000000000e+02  -6.3200000000000000e+02  -6.3400000000000000e+02  -6.3900000000000000e+02  -6.4400000000000000e+02  -6.4700000000000000e+02  -6.4700000000000000e+02  -6.4600000000000000e+02  -6.4500000000000000e+02  -6.4800000000000000e+02  -6.5600000000000000e+02  -6.6700000000000000e+02  -6.7700000000000000e+02  -6.8300000000000000e+02  -6.8400000000000000e+02  -6.7900000000000000e+02  -6.7400000000000000e+02  -6.7100000000000000e+02  -6.7200000000000000e+02  -6.7500000000000000e+02  -6.7900000000000000e+02  -6.8200000000000000e+02  -6.8500000000000000e+02  -6.8900000000000000e+02  -6.9600000000000000e+02  -7.0300000000000000e+02  -7.0800000000000000e+02  -7.0800000000000000e+02  -7.0500000000000000e+02  -7.0300000000000000e+02  -7.0400000000000000e+02  -7.0800000000000000e+02  -7.1400000000000000e+02  -7.1800000000000000e+02  -7.2100000000000000e+02  -7.2200000000000000e+02  -7.2400000000000000e+02  -7.2700000000000000e+02  -7.3100000000000000e+02  -7.3400000000000000e+02  -7.3700000000000000e+02  -7.4100000000000000e+02  -7.4600000000000000e+02  -7.5500000000000000e+02  -7.6600000000000000e+02  -7.7800000000000000e+02  -7.8700000000000000e+02  -7.9100000000000000e+02  -7.9000000000000000e+02  -7.8700000000000000e+02  -7.8300000000000000e+02  -7.7700000000000000e+02  -7.6900000000000000e+02  -7.5800000000000000e+02  -7.4500000000000000e+02  -7.3400000000000000e+02  -7.2700000000000000e+02  -7.2500000000000000e+02  -7.2500000000000000e+02  -7.2400000000000000e+02  -7.2300000000000000e+02  -7.2100000000000000e+02  -7.1900000000000000e+02  -7.1800000000000000e+02  -7.1800000000000000e+02  -7.2000000000000000e+02  -7.2200000000000000e+02  -7.2400000000000000e+02  -7.2600000000000000e+02  -7.2800000000000000e+02  -7.2900000000000000e+02  -7.3000000000000000e+02  -7.3000000000000000e+02  -7.3000000000000000e+02  -7.3100000000000000e+02  -7.3200000000000000e+02  -7.3400000000000000e+02  -7.3400000000000000e+02  -7.3400000000000000e+02  -7.3300000000000000e+02  -7.3300000000000000e+02  -7.3500000000000000e+02  -7.3700000000000000e+02  -7.4000000000000000e+02  -7.4300000000000000e+02  -7.4600000000000000e+02  -7.4900000000000000e+02  -7.5100000000000000e+02  -7.5300000000000000e+02  -7.5400000000000000e+02  -7.5400000000000000e+02  -7.5200000000000000e+02  -7.5000000000000000e+02  -7.4500000000000000e+02  -7.4100000000000000e+02  -7.4000000000000000e+02  -7.4400000000000000e+02  -7.5400000000000000e+02  -7.7100000000000000e+02  -7.8900000000000000e+02  -7.9800000000000000e+02  -7.8800000000000000e+02  -7.5200000000000000e+02  -6.9500000000000000e+02  -6.2900000000000000e+02  -5.7300000000000000e+02  -5.4000000000000000e+02  -5.3700000000000000e+02  -5.5600000000000000e+02  -5.8700000000000000e+02  -6.2000000000000000e+02  -6.5000000000000000e+02  -6.7400000000000000e+02  -6.9300000000000000e+02  -7.0700000000000000e+02  -7.2000000000000000e+02  -7.3200000000000000e+02  -7.4500000000000000e+02  -7.6000000000000000e+02  -7.7400000000000000e+02  -7.8800000000000000e+02  -8.0000000000000000e+02  -8.1000000000000000e+02  -8.1900000000000000e+02  -8.2800000000000000e+02  -8.3600000000000000e+02  -8.4300000000000000e+02  -8.4800000000000000e+02  -8.5300000000000000e+02  -8.5600000000000000e+02  -8.5800000000000000e+02  -8.5900000000000000e+02  -8.5900000000000000e+02  -8.5900000000000000e+02  -8.6000000000000000e+02  -8.6200000000000000e+02  -8.6500000000000000e+02  -8.6800000000000000e+02  -8.7000000000000000e+02  -8.7100000000000000e+02  -8.7100000000000000e+02  -8.7200000000000000e+02  -8.7300000000000000e+02  -8.7600000000000000e+02  -8.7900000000000000e+02  -8.8400000000000000e+02  -8.8900000000000000e+02  -8.9300000000000000e+02  -8.9600000000000000e+02  -8.9900000000000000e+02  -9.0000000000000000e+02  -9.0100000000000000e+02  -9.0000000000000000e+02  -8.9900000000000000e+02  -8.9800000000000000e+02  -8.9800000000000000e+02  -8.9900000000000000e+02  -9.0100000000000000e+02  -9.0200000000000000e+02  -9.0300000000000000e+02  -9.0100000000000000e+02  -8.9700000000000000e+02  -8.9100000000000000e+02  -8.8700000000000000e+02  -8.8300000000000000e+02  -8.8200000000000000e+02  -8.8300000000000000e+02  -8.8500000000000000e+02  -8.8900000000000000e+02  -8.9300000000000000e+02  -8.9800000000000000e+02  -9.0200000000000000e+02  -9.0600000000000000e+02  -9.1100000000000000e+02  -9.1600000000000000e+02  -9.2200000000000000e+02  -9.2700000000000000e+02  -9.3000000000000000e+02  -9.3200000000000000e+02  -9.3200000000000000e+02  -9.2900000000000000e+02  -9.1900000000000000e+02  -9.0300000000000000e+02  -8.8400000000000000e+02  -8.6500000000000000e+02  -8.5000000000000000e+02  -8.4200000000000000e+02  -8.4000000000000000e+02  -8.4300000000000000e+02  -8.4700000000000000e+02  -8.5000000000000000e+02  -8.5300000000000000e+02  -8.5400000000000000e+02  -8.5800000000000000e+02  -8.6800000000000000e+02  -8.8600000000000000e+02  -9.1300000000000000e+02  -9.4600000000000000e+02  -9.8300000000000000e+02  -1.0200000000000000e+03  -1.0540000000000000e+03  -1.0800000000000000e+03  -1.1000000000000000e+03  -1.1130000000000000e+03  -1.1230000000000000e+03  -1.1310000000000000e+03  -1.1410000000000000e+03  -1.1520000000000000e+03  -1.1630000000000000e+03  -1.1750000000000000e+03  -1.1840000000000000e+03  -1.1910000000000000e+03  -1.1970000000000000e+03  -1.2020000000000000e+03  -1.2080000000000000e+03  -1.2120000000000000e+03  -1.2130000000000000e+03  -1.2120000000000000e+03  -1.2100000000000000e+03  -1.2100000000000000e+03  -1.2120000000000000e+03  -1.2160000000000000e+03  -1.2200000000000000e+03  -1.2230000000000000e+03  -1.2270000000000000e+03  -1.2310000000000000e+03  -1.2390000000000000e+03  -1.2480000000000000e+03  -1.2590000000000000e+03  -1.2690000000000000e+03  -1.2760000000000000e+03  -1.2800000000000000e+03  -1.2800000000000000e+03  -1.2790000000000000e+03  -1.2780000000000000e+03  -1.2770000000000000e+03  -1.2780000000000000e+03  -1.2790000000000000e+03  -1.2800000000000000e+03  -1.2780000000000000e+03  -1.2740000000000000e+03  -1.2690000000000000e+03  -1.2640000000000000e+03  -1.2610000000000000e+03  -1.2590000000000000e+03  -1.2580000000000000e+03  -1.2590000000000000e+03  -1.2610000000000000e+03  -1.2660000000000000e+03  -1.2710000000000000e+03  -1.2780000000000000e+03  -1.2860000000000000e+03  -1.2930000000000000e+03  -1.3000000000000000e+03  -1.3050000000000000e+03  -1.3110000000000000e+03  -1.3170000000000000e+03  -1.3230000000000000e+03  -1.3310000000000000e+03  -1.3380000000000000e+03  -1.3440000000000000e+03  -1.3470000000000000e+03  -1.3470000000000000e+03  -1.3450000000000000e+03  -1.3430000000000000e+03  -1.3420000000000000e+03  -1.3430000000000000e+03  -1.3450000000000000e+03  -1.3480000000000000e+03  -1.3500000000000000e+03  -1.3520000000000000e+03  -1.3550000000000000e+03  -1.3580000000000000e+03  -1.3630000000000000e+03  -1.3670000000000000e+03  -1.3710000000000000e+03  -1.3740000000000000e+03  -1.3770000000000000e+03  -1.3800000000000000e+03  -1.3820000000000000e+03  -1.3840000000000000e+03  -1.3830000000000000e+03  -1.3810000000000000e+03  -1.3810000000000000e+03  -1.3860000000000000e+03  -1.3980000000000000e+03  -1.4150000000000000e+03  -1.4290000000000000e+03  -1.4290000000000000e+03  -1.4040000000000000e+03  -1.3540000000000000e+03  -1.2910000000000000e+03  -1.2310000000000000e+03  -1.1910000000000000e+03  -1.1780000000000000e+03  -1.1900000000000000e+03  -1.2150000000000000e+03  -1.2450000000000000e+03  -1.2720000000000000e+03  -1.2950000000000000e+03  -1.3140000000000000e+03  -1.3310000000000000e+03  -1.3450000000000000e+03  -1.3580000000000000e+03  -1.3700000000000000e+03  -1.3790000000000000e+03  -1.3870000000000000e+03  -1.3930000000000000e+03  -1.3980000000000000e+03  -1.4030000000000000e+03  -1.4080000000000000e+03  -1.4130000000000000e+03  -1.4160000000000000e+03  -1.4180000000000000e+03  -1.4190000000000000e+03  -1.4200000000000000e+03  -1.4210000000000000e+03  -1.4230000000000000e+03  -1.4240000000000000e+03  -1.4240000000000000e+03  -1.4250000000000000e+03  -1.4250000000000000e+03  -1.4250000000000000e+03  -1.4240000000000000e+03  -1.4220000000000000e+03  -1.4210000000000000e+03  -1.4200000000000000e+03  -1.4190000000000000e+03  -1.4200000000000000e+03  -1.4210000000000000e+03  -1.4220000000000000e+03  -1.4220000000000000e+03  -1.4210000000000000e+03  -1.4190000000000000e+03  -1.4170000000000000e+03  -1.4150000000000000e+03  -1.4140000000000000e+03  -1.4130000000000000e+03  -1.4130000000000000e+03  -1.4140000000000000e+03  -1.4150000000000000e+03  -1.4170000000000000e+03  -1.4190000000000000e+03  -1.4210000000000000e+03  -1.4230000000000000e+03  -1.4230000000000000e+03  -1.4230000000000000e+03  -1.4220000000000000e+03  -1.4210000000000000e+03  -1.4200000000000000e+03  -1.4210000000000000e+03  -1.4210000000000000e+03  -1.4220000000000000e+03  -1.4230000000000000e+03  -1.4230000000000000e+03  -1.4240000000000000e+03  -1.4250000000000000e+03  -1.4270000000000000e+03  -1.4320000000000000e+03  -1.4380000000000000e+03  -1.4470000000000000e+03  -1.4580000000000000e+03  -1.4690000000000000e+03  -1.4800000000000000e+03  -1.4870000000000000e+03  -1.4910000000000000e+03  -1.4900000000000000e+03  -1.4850000000000000e+03  -1.4770000000000000e+03  -1.4680000000000000e+03  -1.4590000000000000e+03  -1.4510000000000000e+03  -1.4440000000000000e+03  -1.4380000000000000e+03  -1.4320000000000000e+03  -1.4270000000000000e+03  -1.4220000000000000e+03  -1.4190000000000000e+03  -1.4170000000000000e+03  -1.4160000000000000e+03  -1.4150000000000000e+03  -1.4140000000000000e+03  -1.4120000000000000e+03  -1.4110000000000000e+03  -1.4100000000000000e+03  -1.4100000000000000e+03  -1.4100000000000000e+03  -1.4100000000000000e+03  -1.4100000000000000e+03  -1.4100000000000000e+03  -1.4090000000000000e+03  -1.4080000000000000e+03  -1.4070000000000000e+03  -1.4050000000000000e+03  -1.4030000000000000e+03  -1.4020000000000000e+03  -1.4010000000000000e+03  -1.4010000000000000e+03  -1.4010000000000000e+03  -1.4000000000000000e+03  -1.3980000000000000e+03  -1.3970000000000000e+03  -1.3950000000000000e+03  -1.3950000000000000e+03  -1.3960000000000000e+03  -1.3980000000000000e+03  -1.4010000000000000e+03  -1.4050000000000000e+03  -1.4100000000000000e+03  -1.4150000000000000e+03  -1.4220000000000000e+03  -1.4300000000000000e+03  -1.4380000000000000e+03  -1.4440000000000000e+03  -1.4500000000000000e+03  -1.4540000000000000e+03  -1.4560000000000000e+03  -1.4570000000000000e+03  -1.4570000000000000e+03  -1.4550000000000000e+03  -1.4510000000000000e+03  -1.4440000000000000e+03  -1.4350000000000000e+03  -1.4250000000000000e+03  -1.4150000000000000e+03  -1.4080000000000000e+03  -1.4020000000000000e+03  -1.3980000000000000e+03  -1.3940000000000000e+03  -1.3910000000000000e+03  -1.3890000000000000e+03  -1.3870000000000000e+03  -1.3860000000000000e+03  -1.3860000000000000e+03  -1.3850000000000000e+03  -1.3850000000000000e+03  -1.3840000000000000e+03  -1.3820000000000000e+03  -1.3810000000000000e+03  -1.3810000000000000e+03  -1.3800000000000000e+03  -1.3810000000000000e+03  -1.3810000000000000e+03  -1.3810000000000000e+03  -1.3800000000000000e+03  -1.3790000000000000e+03  -1.3770000000000000e+03  -1.3760000000000000e+03  -1.3740000000000000e+03  -1.3730000000000000e+03  -1.3720000000000000e+03  -1.3700000000000000e+03  -1.3690000000000000e+03  -1.3680000000000000e+03  -1.3680000000000000e+03  -1.3690000000000000e+03  -1.3710000000000000e+03  -1.3720000000000000e+03  -1.3710000000000000e+03  -1.3700000000000000e+03  -1.3670000000000000e+03  -1.3640000000000000e+03  -1.3610000000000000e+03  -1.3580000000000000e+03  -1.3580000000000000e+03  -1.3610000000000000e+03  -1.3700000000000000e+03  -1.3850000000000000e+03  -1.3990000000000000e+03  -1.4010000000000000e+03  -1.3810000000000000e+03  -1.3360000000000000e+03  -1.2730000000000000e+03  -1.2080000000000000e+03  -1.1610000000000000e+03  -1.1400000000000000e+03  -1.1450000000000000e+03  -1.1680000000000000e+03  -1.1980000000000000e+03  -1.2260000000000000e+03  -1.2500000000000000e+03  -1.2690000000000000e+03  -1.2850000000000000e+03  -1.2980000000000000e+03  -1.3090000000000000e+03  -1.3190000000000000e+03  -1.3270000000000000e+03  -1.3350000000000000e+03  -1.3440000000000000e+03  -1.3520000000000000e+03  -1.3580000000000000e+03  -1.3630000000000000e+03  -1.3660000000000000e+03  -1.3680000000000000e+03  -1.3690000000000000e+03  -1.3700000000000000e+03  -1.3700000000000000e+03  -1.3700000000000000e+03  -1.3690000000000000e+03  -1.3680000000000000e+03  -1.3660000000000000e+03  -1.3650000000000000e+03  -1.3650000000000000e+03  -1.3670000000000000e+03  -1.3680000000000000e+03  -1.3690000000000000e+03  -1.3690000000000000e+03  -1.3680000000000000e+03  -1.3670000000000000e+03  -1.3670000000000000e+03  -1.3660000000000000e+03  -1.3660000000000000e+03  -1.3650000000000000e+03  -1.3640000000000000e+03  -1.3640000000000000e+03  -1.3640000000000000e+03  -1.3650000000000000e+03  -1.3650000000000000e+03  -1.3650000000000000e+03  -1.3640000000000000e+03  -1.3630000000000000e+03  -1.3610000000000000e+03  -1.3600000000000000e+03  -1.3590000000000000e+03  -1.3590000000000000e+03  -1.3580000000000000e+03  -1.3580000000000000e+03  -1.3580000000000000e+03  -1.3580000000000000e+03  -1.3580000000000000e+03  -1.3580000000000000e+03  -1.3570000000000000e+03  -1.3570000000000000e+03  -1.3550000000000000e+03  -1.3540000000000000e+03  -1.3520000000000000e+03  -1.3510000000000000e+03  -1.3510000000000000e+03  -1.3530000000000000e+03  -1.3580000000000000e+03  -1.3650000000000000e+03  -1.3740000000000000e+03  -1.3850000000000000e+03  -1.3950000000000000e+03  -1.4030000000000000e+03  -1.4080000000000000e+03  -1.4090000000000000e+03  -1.4060000000000000e+03  -1.4000000000000000e+03  -1.3920000000000000e+03  -1.3820000000000000e+03  -1.3730000000000000e+03  -1.3650000000000000e+03  -1.3590000000000000e+03  -1.3540000000000000e+03  -1.3510000000000000e+03  -1.3480000000000000e+03  -1.3470000000000000e+03  -1.3450000000000000e+03  -1.3440000000000000e+03  -1.3420000000000000e+03  -1.3400000000000000e+03  -1.3380000000000000e+03  -1.3360000000000000e+03  -1.3350000000000000e+03  -1.3350000000000000e+03  -1.3350000000000000e+03  -1.3350000000000000e+03  -1.3340000000000000e+03  -1.3340000000000000e+03  -1.3330000000000000e+03  -1.3320000000000000e+03  -1.3320000000000000e+03  -1.3320000000000000e+03  -1.3330000000000000e+03  -1.3330000000000000e+03  -1.3330000000000000e+03  -1.3320000000000000e+03  -1.3310000000000000e+03  -1.3290000000000000e+03  -1.3270000000000000e+03  -1.3240000000000000e+03  -1.3230000000000000e+03  -1.3220000000000000e+03  -1.3220000000000000e+03  -1.3240000000000000e+03  -1.3260000000000000e+03  -1.3280000000000000e+03  -1.3290000000000000e+03  -1.3310000000000000e+03  -1.3320000000000000e+03  -1.3350000000000000e+03  -1.3390000000000000e+03  -1.3450000000000000e+03  -1.3530000000000000e+03  -1.3610000000000000e+03  -1.3690000000000000e+03  -1.3760000000000000e+03  -1.3820000000000000e+03  -1.3850000000000000e+03  -1.3860000000000000e+03  -1.3870000000000000e+03  -1.3850000000000000e+03  -1.3830000000000000e+03  -1.3800000000000000e+03  -1.3740000000000000e+03  -1.3660000000000000e+03  -1.3570000000000000e+03  -1.3480000000000000e+03  -1.3390000000000000e+03  -1.3320000000000000e+03  -1.3270000000000000e+03  -1.3230000000000000e+03  -1.3200000000000000e+03  -1.3190000000000000e+03  -1.3180000000000000e+03  -1.3180000000000000e+03  -1.3170000000000000e+03  -1.3170000000000000e+03  -1.3170000000000000e+03  -1.3160000000000000e+03  -1.3150000000000000e+03  -1.3140000000000000e+03  -1.3130000000000000e+03  -1.3130000000000000e+03  -1.3130000000000000e+03  -1.3140000000000000e+03  -1.3150000000000000e+03  -1.3170000000000000e+03  -1.3170000000000000e+03  -1.3170000000000000e+03  -1.3170000000000000e+03  -1.3160000000000000e+03  -1.3160000000000000e+03  -1.3160000000000000e+03  -1.3150000000000000e+03  -1.3150000000000000e+03  -1.3140000000000000e+03  -1.3150000000000000e+03  -1.3160000000000000e+03  -1.3180000000000000e+03  -1.3200000000000000e+03  -1.3210000000000000e+03  -1.3210000000000000e+03  -1.3200000000000000e+03  -1.3180000000000000e+03  -1.3150000000000000e+03  -1.3130000000000000e+03  -1.3120000000000000e+03  -1.3140000000000000e+03  -1.3220000000000000e+03  -1.3360000000000000e+03  -1.3500000000000000e+03  -1.3550000000000000e+03  -1.3390000000000000e+03  -1.2960000000000000e+03  -1.2340000000000000e+03  -1.1690000000000000e+03  -1.1190000000000000e+03  -1.0950000000000000e+03  -1.0990000000000000e+03  -1.1220000000000000e+03  -1.1510000000000000e+03  -1.1800000000000000e+03  -1.2040000000000000e+03  -1.2230000000000000e+03  -1.2390000000000000e+03  -1.2520000000000000e+03  -1.2640000000000000e+03  -1.2750000000000000e+03  -1.2840000000000000e+03  -1.2920000000000000e+03  -1.3000000000000000e+03  -1.3080000000000000e+03  -1.3140000000000000e+03  -1.3190000000000000e+03  -1.3220000000000000e+03  -1.3240000000000000e+03  -1.3250000000000000e+03  -1.3260000000000000e+03  -1.3270000000000000e+03  -1.3280000000000000e+03  -1.3300000000000000e+03  -1.3310000000000000e+03  -1.3330000000000000e+03  -1.3330000000000000e+03  -1.3320000000000000e+03  -1.3320000000000000e+03  -1.3310000000000000e+03  -1.3310000000000000e+03  -1.3310000000000000e+03  -1.3310000000000000e+03  -1.3310000000000000e+03  -1.3300000000000000e+03  -1.3290000000000000e+03  -1.3280000000000000e+03  -1.3280000000000000e+03  -1.3270000000000000e+03  -1.3260000000000000e+03  -1.3250000000000000e+03  -1.3250000000000000e+03  -1.3250000000000000e+03  -1.3260000000000000e+03  -1.3260000000000000e+03  -1.3270000000000000e+03  -1.3270000000000000e+03  -1.3260000000000000e+03  -1.3240000000000000e+03  -1.3230000000000000e+03  -1.3220000000000000e+03  -1.3220000000000000e+03  -1.3220000000000000e+03  -1.3240000000000000e+03  -1.3250000000000000e+03  -1.3260000000000000e+03  -1.3270000000000000e+03  -1.3270000000000000e+03  -1.3260000000000000e+03  -1.3250000000000000e+03  -1.3230000000000000e+03  -1.3220000000000000e+03  -1.3210000000000000e+03  -1.3220000000000000e+03  -1.3250000000000000e+03  -1.3300000000000000e+03  -1.3390000000000000e+03  -1.3490000000000000e+03  -1.3620000000000000e+03  -1.3730000000000000e+03  -1.3810000000000000e+03  -1.3840000000000000e+03  -1.3830000000000000e+03  -1.3770000000000000e+03  -1.3690000000000000e+03  -1.3610000000000000e+03  -1.3520000000000000e+03  -1.3450000000000000e+03  -1.3380000000000000e+03  -1.3320000000000000e+03  -1.3270000000000000e+03  -1.3240000000000000e+03  -1.3220000000000000e+03  -1.3210000000000000e+03  -1.3200000000000000e+03  -1.3200000000000000e+03  -1.3200000000000000e+03  -1.3190000000000000e+03  -1.3170000000000000e+03  -1.3160000000000000e+03  -1.3150000000000000e+03  -1.3150000000000000e+03  -1.3170000000000000e+03  -1.3180000000000000e+03  -1.3190000000000000e+03  -1.3200000000000000e+03  -1.3190000000000000e+03  -1.3180000000000000e+03  -1.3160000000000000e+03  -1.3150000000000000e+03  -1.3150000000000000e+03  -1.3160000000000000e+03  -1.3180000000000000e+03  -1.3190000000000000e+03  -1.3210000000000000e+03  -1.3210000000000000e+03  -1.3210000000000000e+03  -1.3220000000000000e+03  -1.3220000000000000e+03  -1.3220000000000000e+03  -1.3220000000000000e+03  -1.3210000000000000e+03  -1.3200000000000000e+03  -1.3190000000000000e+03  -1.3190000000000000e+03  -1.3190000000000000e+03  -1.3210000000000000e+03  -1.3220000000000000e+03  -1.3220000000000000e+03  -1.3220000000000000e+03  -1.3210000000000000e+03  -1.3210000000000000e+03  -1.3210000000000000e+03  -1.3220000000000000e+03  -1.3230000000000000e+03  -1.3230000000000000e+03  -1.3230000000000000e+03  -1.3230000000000000e+03  -1.3240000000000000e+03  -1.3270000000000000e+03  -1.3330000000000000e+03  -1.3440000000000000e+03  -1.3570000000000000e+03  -1.3710000000000000e+03  -1.3830000000000000e+03  -1.3920000000000000e+03  -1.3970000000000000e+03  -1.3990000000000000e+03  -1.3990000000000000e+03  -1.3970000000000000e+03  -1.3950000000000000e+03  -1.3910000000000000e+03  -1.3850000000000000e+03  -1.3770000000000000e+03  -1.3680000000000000e+03  -1.3570000000000000e+03  -1.3480000000000000e+03  -1.3420000000000000e+03  -1.3380000000000000e+03  -1.3350000000000000e+03  -1.3320000000000000e+03  -1.3290000000000000e+03  -1.3250000000000000e+03  -1.3220000000000000e+03  -1.3200000000000000e+03  -1.3170000000000000e+03  -1.3150000000000000e+03  -1.3130000000000000e+03  -1.3120000000000000e+03  -1.3110000000000000e+03  -1.3110000000000000e+03  -1.3110000000000000e+03  -1.3120000000000000e+03  -1.3140000000000000e+03  -1.3150000000000000e+03  -1.3160000000000000e+03  -1.3160000000000000e+03  -1.3170000000000000e+03  -1.3170000000000000e+03  -1.3180000000000000e+03  -1.3180000000000000e+03  -1.3180000000000000e+03  -1.3180000000000000e+03  -1.3180000000000000e+03  -1.3180000000000000e+03  -1.3180000000000000e+03  -1.3180000000000000e+03  -1.3170000000000000e+03  -1.3160000000000000e+03  -1.3150000000000000e+03  -1.3130000000000000e+03  -1.3120000000000000e+03  -1.3120000000000000e+03  -1.3110000000000000e+03  -1.3110000000000000e+03  -1.3100000000000000e+03  -1.3090000000000000e+03  -1.3090000000000000e+03  -1.3130000000000000e+03  -1.3220000000000000e+03  -1.3370000000000000e+03  -1.3510000000000000e+03  -1.3520000000000000e+03  -1.3310000000000000e+03  -1.2840000000000000e+03  -1.2180000000000000e+03  -1.1510000000000000e+03  -1.1010000000000000e+03  -1.0780000000000000e+03  -1.0830000000000000e+03  -1.1070000000000000e+03  -1.1370000000000000e+03  -1.1670000000000000e+03  -1.1910000000000000e+03  -1.2090000000000000e+03  -1.2240000000000000e+03  -1.2370000000000000e+03  -1.2480000000000000e+03  -1.2580000000000000e+03  -1.2680000000000000e+03  -1.2760000000000000e+03  -1.2830000000000000e+03  -1.2900000000000000e+03  -1.2950000000000000e+03  -1.3000000000000000e+03  -1.3040000000000000e+03  -1.3060000000000000e+03  -1.3070000000000000e+03  -1.3070000000000000e+03  -1.3060000000000000e+03  -1.3060000000000000e+03  -1.3050000000000000e+03  -1.3050000000000000e+03  -1.3040000000000000e+03  -1.3040000000000000e+03  -1.3030000000000000e+03  -1.3020000000000000e+03  -1.3000000000000000e+03  -1.2990000000000000e+03  -1.2980000000000000e+03  -1.2970000000000000e+03  -1.2970000000000000e+03  -1.2960000000000000e+03  -1.2950000000000000e+03  -1.2930000000000000e+03  -1.2910000000000000e+03  -1.2890000000000000e+03  -1.2870000000000000e+03  -1.2850000000000000e+03  -1.2840000000000000e+03  -1.2830000000000000e+03  -1.2820000000000000e+03  -1.2800000000000000e+03  -1.2790000000000000e+03  -1.2780000000000000e+03  -1.2770000000000000e+03  -1.2760000000000000e+03  -1.2750000000000000e+03  -1.2740000000000000e+03  -1.2730000000000000e+03  -1.2710000000000000e+03  -1.2700000000000000e+03  -1.2680000000000000e+03  -1.2660000000000000e+03  -1.2640000000000000e+03  -1.2620000000000000e+03  -1.2610000000000000e+03  -1.2580000000000000e+03  -1.2560000000000000e+03  -1.2530000000000000e+03  -1.2510000000000000e+03  -1.2510000000000000e+03  -1.2510000000000000e+03  -1.2540000000000000e+03  -1.2590000000000000e+03  -1.2670000000000000e+03  -1.2760000000000000e+03  -1.2860000000000000e+03  -1.2940000000000000e+03  -1.3000000000000000e+03  -1.3020000000000000e+03  -1.3000000000000000e+03  -1.2960000000000000e+03  -1.2890000000000000e+03  -1.2810000000000000e+03  -1.2720000000000000e+03  -1.2620000000000000e+03  -1.2530000000000000e+03  -1.2440000000000000e+03  -1.2370000000000000e+03  -1.2310000000000000e+03  -1.2260000000000000e+03  -1.2230000000000000e+03  -1.2200000000000000e+03  -1.2180000000000000e+03  -1.2170000000000000e+03  -1.2150000000000000e+03  -1.2140000000000000e+03  -1.2120000000000000e+03  -1.2110000000000000e+03  -1.2090000000000000e+03  -1.2070000000000000e+03  -1.2060000000000000e+03  -1.2040000000000000e+03  -1.2020000000000000e+03  -1.2010000000000000e+03  -1.2000000000000000e+03  -1.2000000000000000e+03  -1.1990000000000000e+03  -1.1970000000000000e+03  -1.1950000000000000e+03  -1.1930000000000000e+03  -1.1910000000000000e+03  -1.1900000000000000e+03  -1.1890000000000000e+03  -1.1880000000000000e+03  -1.1870000000000000e+03  -1.1860000000000000e+03  -1.1850000000000000e+03  -1.1840000000000000e+03  -1.1830000000000000e+03  -1.1820000000000000e+03  -1.1810000000000000e+03  -1.1800000000000000e+03  -1.1790000000000000e+03  -1.1780000000000000e+03  -1.1770000000000000e+03  -1.1770000000000000e+03  -1.1780000000000000e+03  -1.1780000000000000e+03  -1.1770000000000000e+03  -1.1760000000000000e+03  -1.1750000000000000e+03  -1.1730000000000000e+03  -1.1730000000000000e+03  -1.1720000000000000e+03  -1.1720000000000000e+03  -1.1720000000000000e+03  -1.1720000000000000e+03  -1.1710000000000000e+03  -1.1710000000000000e+03  -1.1690000000000000e+03  -1.1680000000000000e+03  -1.1660000000000000e+03  -1.1640000000000000e+03  -1.1620000000000000e+03  -1.1600000000000000e+03  -1.1580000000000000e+03  -1.1560000000000000e+03  -1.1550000000000000e+03  -1.1550000000000000e+03  -1.1550000000000000e+03  -1.1550000000000000e+03  -1.1560000000000000e+03  -1.1570000000000000e+03  -1.1580000000000000e+03  -1.1590000000000000e+03  -1.1580000000000000e+03  -1.1570000000000000e+03  -1.1560000000000000e+03  -1.1540000000000000e+03  -1.1520000000000000e+03  -1.1510000000000000e+03  -1.1500000000000000e+03  -1.1500000000000000e+03  -1.1490000000000000e+03  -1.1480000000000000e+03  -1.1460000000000000e+03  -1.1450000000000000e+03  -1.1440000000000000e+03  -1.1450000000000000e+03  -1.1460000000000000e+03  -1.1480000000000000e+03  -1.1490000000000000e+03  -1.1490000000000000e+03  -1.1480000000000000e+03  -1.1480000000000000e+03  -1.1480000000000000e+03  -1.1480000000000000e+03  -1.1490000000000000e+03  -1.1490000000000000e+03  -1.1490000000000000e+03  -1.1490000000000000e+03  -1.1490000000000000e+03  -1.1480000000000000e+03  -1.1480000000000000e+03  -1.1490000000000000e+03  -1.1490000000000000e+03  -1.1500000000000000e+03  -1.1500000000000000e+03  -1.1500000000000000e+03  -1.1490000000000000e+03  -1.1470000000000000e+03  -1.1460000000000000e+03  -1.1460000000000000e+03  -1.1480000000000000e+03  -1.1520000000000000e+03  -1.1580000000000000e+03  -1.1670000000000000e+03  -1.1770000000000000e+03  -1.1850000000000000e+03  -1.1920000000000000e+03  -1.1960000000000000e+03  -1.1980000000000000e+03  -1.1970000000000000e+03  -1.1950000000000000e+03  -1.1920000000000000e+03  -1.1870000000000000e+03  -1.1820000000000000e+03  -1.1750000000000000e+03  -1.1690000000000000e+03  -1.1620000000000000e+03  -1.1560000000000000e+03  -1.1490000000000000e+03  -1.1430000000000000e+03  -1.1380000000000000e+03  -1.1350000000000000e+03  -1.1330000000000000e+03  -1.1340000000000000e+03  -1.1350000000000000e+03  -1.1360000000000000e+03  -1.1360000000000000e+03  -1.1360000000000000e+03  -1.1350000000000000e+03  -1.1340000000000000e+03  -1.1330000000000000e+03  -1.1310000000000000e+03  -1.1300000000000000e+03  -1.1290000000000000e+03  -1.1290000000000000e+03  -1.1300000000000000e+03  -1.1320000000000000e+03  -1.1350000000000000e+03  -1.1370000000000000e+03  -1.1370000000000000e+03  -1.1370000000000000e+03  -1.1360000000000000e+03  -1.1350000000000000e+03  -1.1340000000000000e+03  -1.1340000000000000e+03  -1.1330000000000000e+03  -1.1330000000000000e+03  -1.1330000000000000e+03  -1.1320000000000000e+03  -1.1310000000000000e+03  -1.1310000000000000e+03  -1.1310000000000000e+03  -1.1310000000000000e+03  -1.1320000000000000e+03  -1.1320000000000000e+03  -1.1320000000000000e+03  -1.1310000000000000e+03  -1.1320000000000000e+03  -1.1340000000000000e+03  -1.1420000000000000e+03  -1.1560000000000000e+03  -1.1700000000000000e+03  -1.1750000000000000e+03  -1.1600000000000000e+03  -1.1190000000000000e+03  -1.0570000000000000e+03  -9.9000000000000000e+02  -9.3600000000000000e+02  -9.0800000000000000e+02  -9.0900000000000000e+02  -9.2900000000000000e+02  -9.5900000000000000e+02  -9.8900000000000000e+02  -1.0140000000000000e+03  -1.0340000000000000e+03  -1.0510000000000000e+03  -1.0650000000000000e+03  -1.0770000000000000e+03  -1.0890000000000000e+03  -1.0990000000000000e+03  -1.1080000000000000e+03  -1.1160000000000000e+03  -1.1220000000000000e+03  -1.1280000000000000e+03  -1.1320000000000000e+03  -1.1360000000000000e+03  -1.1390000000000000e+03  -1.1410000000000000e+03  -1.1430000000000000e+03  -1.1440000000000000e+03  -1.1460000000000000e+03  -1.1480000000000000e+03  -1.1500000000000000e+03  -1.1510000000000000e+03  -1.1510000000000000e+03  -1.1510000000000000e+03  -1.1510000000000000e+03  -1.1510000000000000e+03  -1.1500000000000000e+03  -1.1500000000000000e+03  -1.1490000000000000e+03  -1.1480000000000000e+03  -1.1470000000000000e+03  -1.1470000000000000e+03  -1.1470000000000000e+03  -1.1470000000000000e+03  -1.1470000000000000e+03  -1.1460000000000000e+03  -1.1440000000000000e+03  -1.1430000000000000e+03  -1.1430000000000000e+03  -1.1430000000000000e+03  -1.1440000000000000e+03  -1.1440000000000000e+03  -1.1450000000000000e+03  -1.1450000000000000e+03  -1.1440000000000000e+03  -1.1440000000000000e+03  -1.1440000000000000e+03  -1.1440000000000000e+03  -1.1430000000000000e+03  -1.1420000000000000e+03  -1.1410000000000000e+03  -1.1400000000000000e+03  -1.1390000000000000e+03  -1.1390000000000000e+03  -1.1380000000000000e+03  -1.1370000000000000e+03  -1.1370000000000000e+03  -1.1350000000000000e+03  -1.1330000000000000e+03  -1.1310000000000000e+03  -1.1290000000000000e+03  -1.1270000000000000e+03  -1.1270000000000000e+03  -1.1290000000000000e+03  -1.1340000000000000e+03  -1.1420000000000000e+03  -1.1540000000000000e+03  -1.1670000000000000e+03  -1.1790000000000000e+03  -1.1900000000000000e+03  -1.1960000000000000e+03  -1.1980000000000000e+03  -1.1960000000000000e+03  -1.1900000000000000e+03  -1.1830000000000000e+03  -1.1750000000000000e+03  -1.1680000000000000e+03  -1.1610000000000000e+03  -1.1540000000000000e+03  -1.1470000000000000e+03  -1.1410000000000000e+03  -1.1360000000000000e+03  -1.1310000000000000e+03  -1.1280000000000000e+03  -1.1250000000000000e+03  -1.1230000000000000e+03  -1.1220000000000000e+03  -1.1210000000000000e+03  -1.1210000000000000e+03  -1.1200000000000000e+03  -1.1190000000000000e+03  -1.1180000000000000e+03  -1.1160000000000000e+03  -1.1140000000000000e+03  -1.1130000000000000e+03  -1.1110000000000000e+03  -1.1100000000000000e+03  -1.1100000000000000e+03  -1.1100000000000000e+03  -1.1110000000000000e+03  -1.1120000000000000e+03  -1.1130000000000000e+03  -1.1120000000000000e+03  -1.1110000000000000e+03  -1.1100000000000000e+03  -1.1080000000000000e+03  -1.1050000000000000e+03  -1.1030000000000000e+03  -1.1020000000000000e+03  -1.1010000000000000e+03  -1.1000000000000000e+03  -1.0990000000000000e+03  -1.0980000000000000e+03  -1.0970000000000000e+03  -1.0970000000000000e+03  -1.0960000000000000e+03  -1.0960000000000000e+03  -1.0970000000000000e+03  -1.0970000000000000e+03  -1.0970000000000000e+03  -1.0960000000000000e+03  -1.0950000000000000e+03  -1.0930000000000000e+03  -1.0920000000000000e+03  -1.0910000000000000e+03  -1.0900000000000000e+03  -1.0900000000000000e+03  -1.0890000000000000e+03  -1.0890000000000000e+03  -1.0890000000000000e+03  -1.0880000000000000e+03  -1.0880000000000000e+03  -1.0870000000000000e+03  -1.0860000000000000e+03  -1.0840000000000000e+03  -1.0830000000000000e+03  -1.0810000000000000e+03  -1.0800000000000000e+03  -1.0790000000000000e+03  -1.0780000000000000e+03  -1.0770000000000000e+03  -1.0760000000000000e+03  -1.0760000000000000e+03  -1.0750000000000000e+03  -1.0750000000000000e+03  -1.0740000000000000e+03  -1.0730000000000000e+03  -1.0720000000000000e+03  -1.0710000000000000e+03  -1.0700000000000000e+03  -1.0690000000000000e+03  -1.0680000000000000e+03  -1.0670000000000000e+03  -1.0660000000000000e+03  -1.0640000000000000e+03  -1.0630000000000000e+03  -1.0630000000000000e+03  -1.0630000000000000e+03  -1.0630000000000000e+03  -1.0630000000000000e+03  -1.0630000000000000e+03  -1.0630000000000000e+03  -1.0620000000000000e+03  -1.0610000000000000e+03  -1.0610000000000000e+03  -1.0610000000000000e+03  -1.0620000000000000e+03  -1.0630000000000000e+03  -1.0640000000000000e+03  -1.0640000000000000e+03  -1.0630000000000000e+03  -1.0610000000000000e+03  -1.0590000000000000e+03  -1.0570000000000000e+03  -1.0550000000000000e+03  -1.0530000000000000e+03  -1.0520000000000000e+03  -1.0500000000000000e+03  -1.0490000000000000e+03  -1.0490000000000000e+03  -1.0490000000000000e+03  -1.0520000000000000e+03  -1.0570000000000000e+03  -1.0640000000000000e+03  -1.0730000000000000e+03  -1.0810000000000000e+03  -1.0870000000000000e+03  -1.0900000000000000e+03  -1.0920000000000000e+03  -1.0910000000000000e+03  -1.0880000000000000e+03  -1.0840000000000000e+03  -1.0770000000000000e+03  -1.0680000000000000e+03  -1.0590000000000000e+03  -1.0500000000000000e+03  -1.0430000000000000e+03  -1.0380000000000000e+03  -1.0340000000000000e+03  -1.0310000000000000e+03  -1.0290000000000000e+03  -1.0280000000000000e+03  -1.0280000000000000e+03  -1.0270000000000000e+03  -1.0270000000000000e+03  -1.0260000000000000e+03  -1.0250000000000000e+03  -1.0240000000000000e+03  -1.0230000000000000e+03  -1.0230000000000000e+03  -1.0240000000000000e+03  -1.0240000000000000e+03  -1.0250000000000000e+03  -1.0250000000000000e+03  -1.0240000000000000e+03  -1.0230000000000000e+03  -1.0220000000000000e+03  -1.0210000000000000e+03  -1.0190000000000000e+03  -1.0180000000000000e+03  -1.0180000000000000e+03  -1.0180000000000000e+03  -1.0190000000000000e+03  -1.0200000000000000e+03  -1.0210000000000000e+03  -1.0210000000000000e+03  -1.0210000000000000e+03  -1.0200000000000000e+03  -1.0200000000000000e+03  -1.0190000000000000e+03  -1.0180000000000000e+03  -1.0170000000000000e+03  -1.0150000000000000e+03  -1.0140000000000000e+03  -1.0140000000000000e+03  -1.0130000000000000e+03  -1.0130000000000000e+03  -1.0140000000000000e+03  -1.0180000000000000e+03  -1.0280000000000000e+03  -1.0420000000000000e+03  -1.0570000000000000e+03  -1.0610000000000000e+03  -1.0440000000000000e+03  -1.0010000000000000e+03  -9.4000000000000000e+02  -8.7500000000000000e+02  -8.2400000000000000e+02  -8.0000000000000000e+02  -8.0200000000000000e+02  -8.2300000000000000e+02  -8.5200000000000000e+02  -8.8000000000000000e+02  -9.0400000000000000e+02  -9.2300000000000000e+02  -9.3900000000000000e+02  -9.5300000000000000e+02  -9.6500000000000000e+02  -9.7600000000000000e+02  -9.8600000000000000e+02  -9.9500000000000000e+02  -1.0020000000000000e+03  -1.0080000000000000e+03  -1.0140000000000000e+03  -1.0190000000000000e+03  -1.0240000000000000e+03  -1.0270000000000000e+03  -1.0290000000000000e+03  -1.0310000000000000e+03  -1.0320000000000000e+03  -1.0320000000000000e+03  -1.0330000000000000e+03  -1.0340000000000000e+03  -1.0330000000000000e+03  -1.0330000000000000e+03  -1.0330000000000000e+03  -1.0330000000000000e+03  -1.0330000000000000e+03  -1.0330000000000000e+03  -1.0330000000000000e+03  -1.0320000000000000e+03  -1.0310000000000000e+03  -1.0300000000000000e+03  -1.0290000000000000e+03  -1.0280000000000000e+03  -1.0280000000000000e+03  -1.0290000000000000e+03  -1.0310000000000000e+03  -1.0330000000000000e+03  -1.0350000000000000e+03  -1.0350000000000000e+03  -1.0330000000000000e+03  -1.0300000000000000e+03  -1.0280000000000000e+03  -1.0260000000000000e+03  -1.0260000000000000e+03  -1.0260000000000000e+03  -1.0260000000000000e+03  -1.0270000000000000e+03  -1.0270000000000000e+03  -1.0280000000000000e+03  -1.0280000000000000e+03  -1.0270000000000000e+03  -1.0260000000000000e+03  -1.0260000000000000e+03  -1.0250000000000000e+03  -1.0240000000000000e+03  -1.0230000000000000e+03  -1.0220000000000000e+03  -1.0200000000000000e+03  -1.0180000000000000e+03  -1.0160000000000000e+03  -1.0140000000000000e+03  -1.0130000000000000e+03  -1.0130000000000000e+03  -1.0130000000000000e+03  -1.0160000000000000e+03  -1.0210000000000000e+03  -1.0290000000000000e+03  -1.0410000000000000e+03  -1.0540000000000000e+03  -1.0680000000000000e+03  -1.0790000000000000e+03  -1.0870000000000000e+03  -1.0900000000000000e+03  -1.0880000000000000e+03  -1.0820000000000000e+03  -1.0750000000000000e+03  -1.0660000000000000e+03  -1.0570000000000000e+03  -1.0490000000000000e+03  -1.0430000000000000e+03  -1.0370000000000000e+03  -1.0330000000000000e+03  -1.0300000000000000e+03  -1.0270000000000000e+03  -1.0250000000000000e+03  -1.0230000000000000e+03  -1.0220000000000000e+03  -1.0210000000000000e+03  -1.0210000000000000e+03  -1.0210000000000000e+03  -1.0210000000000000e+03  -1.0210000000000000e+03  -1.0210000000000000e+03  -1.0200000000000000e+03  -1.0200000000000000e+03  -1.0190000000000000e+03  -1.0180000000000000e+03  -1.0180000000000000e+03  -1.0170000000000000e+03  -1.0160000000000000e+03  -1.0160000000000000e+03  -1.0160000000000000e+03  -1.0170000000000000e+03  -1.0170000000000000e+03  -1.0160000000000000e+03  -1.0160000000000000e+03  -1.0150000000000000e+03  -1.0140000000000000e+03  -1.0120000000000000e+03  -1.0120000000000000e+03  -1.0110000000000000e+03  -1.0110000000000000e+03  -1.0110000000000000e+03  -1.0120000000000000e+03  -1.0120000000000000e+03  -1.0120000000000000e+03  -1.0120000000000000e+03  -1.0120000000000000e+03  -1.0120000000000000e+03  -1.0130000000000000e+03  -1.0120000000000000e+03  -1.0120000000000000e+03  -1.0120000000000000e+03  -1.0120000000000000e+03  -1.0120000000000000e+03  -1.0120000000000000e+03  -1.0110000000000000e+03  -1.0100000000000000e+03  -1.0100000000000000e+03  -1.0090000000000000e+03  -1.0080000000000000e+03  -1.0080000000000000e+03  -1.0070000000000000e+03  -1.0060000000000000e+03  -1.0050000000000000e+03  -1.0040000000000000e+03  -1.0030000000000000e+03  -1.0030000000000000e+03  -1.0030000000000000e+03  -1.0030000000000000e+03  -1.0030000000000000e+03  -1.0030000000000000e+03  -1.0020000000000000e+03  -1.0020000000000000e+03  -1.0010000000000000e+03  -1.0000000000000000e+03  -9.9900000000000000e+02  -9.9800000000000000e+02  -9.9700000000000000e+02  -9.9600000000000000e+02  -9.9500000000000000e+02  -9.9500000000000000e+02  -9.9500000000000000e+02  -9.9600000000000000e+02  -9.9700000000000000e+02  -9.9900000000000000e+02  -1.0000000000000000e+03  -1.0010000000000000e+03  -1.0010000000000000e+03  -1.0010000000000000e+03  -1.0010000000000000e+03  -1.0020000000000000e+03  -1.0020000000000000e+03  -1.0030000000000000e+03  -1.0030000000000000e+03  -1.0020000000000000e+03  -1.0000000000000000e+03  -9.9900000000000000e+02  -9.9700000000000000e+02  -9.9500000000000000e+02  -9.9300000000000000e+02  -9.9100000000000000e+02  -9.9000000000000000e+02  -9.8800000000000000e+02  -9.8800000000000000e+02  -9.8900000000000000e+02  -9.9300000000000000e+02  -1.0010000000000000e+03  -1.0100000000000000e+03  -1.0190000000000000e+03  -1.0270000000000000e+03  -1.0320000000000000e+03  -1.0330000000000000e+03  -1.0330000000000000e+03  -1.0300000000000000e+03  -1.0250000000000000e+03  -1.0180000000000000e+03  -1.0100000000000000e+03  -1.0010000000000000e+03  -9.9300000000000000e+02  -9.8600000000000000e+02  -9.8000000000000000e+02  -9.7600000000000000e+02  -9.7300000000000000e+02  -9.7000000000000000e+02  -9.6800000000000000e+02  -9.6600000000000000e+02  -9.6300000000000000e+02  -9.6100000000000000e+02  -9.6000000000000000e+02  -9.5900000000000000e+02  -9.5900000000000000e+02  -9.6000000000000000e+02  -9.6000000000000000e+02  -9.6000000000000000e+02  -9.5900000000000000e+02  -9.5700000000000000e+02  -9.5600000000000000e+02  -9.5400000000000000e+02  -9.5300000000000000e+02  -9.5200000000000000e+02  -9.5100000000000000e+02  -9.5100000000000000e+02  -9.5200000000000000e+02  -9.5300000000000000e+02  -9.5400000000000000e+02  -9.5500000000000000e+02  -9.5500000000000000e+02  -9.5400000000000000e+02  -9.5300000000000000e+02  -9.5200000000000000e+02  -9.5000000000000000e+02  -9.4900000000000000e+02  -9.4700000000000000e+02  -9.4600000000000000e+02  -9.4600000000000000e+02  -9.4500000000000000e+02  -9.4500000000000000e+02  -9.4500000000000000e+02  -9.4300000000000000e+02  -9.4200000000000000e+02  -9.4300000000000000e+02  -9.4800000000000000e+02  -9.6000000000000000e+02  -9.7500000000000000e+02  -9.8700000000000000e+02  -9.8400000000000000e+02  -9.5600000000000000e+02  -9.0500000000000000e+02  -8.3900000000000000e+02  -7.7900000000000000e+02  -7.3900000000000000e+02  -7.2700000000000000e+02  -7.3900000000000000e+02  -7.6600000000000000e+02  -7.9700000000000000e+02  -8.2400000000000000e+02  -8.4600000000000000e+02  -8.6300000000000000e+02  -8.7800000000000000e+02  -8.9000000000000000e+02  -9.0000000000000000e+02  -9.0900000000000000e+02  -9.1700000000000000e+02  -9.2500000000000000e+02  -9.3100000000000000e+02  -9.3800000000000000e+02  -9.4400000000000000e+02  -9.4900000000000000e+02  -9.5200000000000000e+02  -9.5500000000000000e+02  -9.5700000000000000e+02  -9.5700000000000000e+02  -9.5600000000000000e+02  -9.5500000000000000e+02  -9.5400000000000000e+02  -9.5200000000000000e+02  -9.5200000000000000e+02  -9.5200000000000000e+02  -9.5200000000000000e+02  -9.5300000000000000e+02  -9.5400000000000000e+02  -9.5600000000000000e+02  -9.5800000000000000e+02  -9.5900000000000000e+02  -9.5900000000000000e+02  -9.5900000000000000e+02  -9.5800000000000000e+02  -9.5600000000000000e+02  -9.5500000000000000e+02  -9.5400000000000000e+02  -9.5400000000000000e+02  -9.5400000000000000e+02  -9.5400000000000000e+02  -9.5400000000000000e+02  -9.5400000000000000e+02  -9.5400000000000000e+02  -9.5300000000000000e+02  -9.5200000000000000e+02  -9.5100000000000000e+02  -9.5000000000000000e+02  -9.4900000000000000e+02  -9.4900000000000000e+02  -9.5000000000000000e+02  -9.5100000000000000e+02  -9.5100000000000000e+02  -9.5200000000000000e+02  -9.5100000000000000e+02  -9.4900000000000000e+02  -9.4700000000000000e+02  -9.4400000000000000e+02  -9.4300000000000000e+02  -9.4100000000000000e+02  -9.4100000000000000e+02  -9.4000000000000000e+02  -9.3800000000000000e+02  -9.3600000000000000e+02  -9.3400000000000000e+02  -9.3200000000000000e+02  -9.3200000000000000e+02  -9.3400000000000000e+02  -9.3900000000000000e+02  -9.4700000000000000e+02  -9.5700000000000000e+02  -9.6900000000000000e+02  -9.8100000000000000e+02  -9.9100000000000000e+02  -9.9800000000000000e+02  -1.0010000000000000e+03  -1.0000000000000000e+03  -9.9600000000000000e+02  -9.9100000000000000e+02  -9.8400000000000000e+02  -9.7600000000000000e+02  -9.6800000000000000e+02  -9.6100000000000000e+02  -9.5500000000000000e+02  -9.5100000000000000e+02  -9.4700000000000000e+02  -9.4500000000000000e+02  -9.4400000000000000e+02  -9.4300000000000000e+02  -9.4300000000000000e+02  -9.4300000000000000e+02  -9.4300000000000000e+02  -9.4300000000000000e+02  -9.4300000000000000e+02  -9.4200000000000000e+02  -9.4000000000000000e+02  -9.3900000000000000e+02  -9.3900000000000000e+02  -9.3900000000000000e+02  -9.4000000000000000e+02  -9.4100000000000000e+02  -9.4200000000000000e+02  -9.4200000000000000e+02  -9.4200000000000000e+02  -9.4100000000000000e+02  -9.4000000000000000e+02  -9.4000000000000000e+02  -9.3900000000000000e+02  -9.3900000000000000e+02  -9.3900000000000000e+02  -9.3900000000000000e+02  -9.3800000000000000e+02  -9.3700000000000000e+02  -9.3700000000000000e+02  -9.3700000000000000e+02  -9.3800000000000000e+02  -9.3800000000000000e+02  -9.3900000000000000e+02  -9.4000000000000000e+02  -9.4000000000000000e+02  -9.4000000000000000e+02  -9.4100000000000000e+02  -9.4000000000000000e+02  -9.4000000000000000e+02  -9.4000000000000000e+02  -9.4000000000000000e+02  -9.4000000000000000e+02  -9.4000000000000000e+02  -9.4000000000000000e+02  -9.4000000000000000e+02  -9.4100000000000000e+02  -9.4100000000000000e+02  -9.4100000000000000e+02  -9.4100000000000000e+02  -9.4000000000000000e+02  -9.4000000000000000e+02  -9.4000000000000000e+02  -9.3900000000000000e+02  -9.3800000000000000e+02  -9.3800000000000000e+02  -9.3700000000000000e+02  -9.3600000000000000e+02  -9.3600000000000000e+02  -9.3500000000000000e+02  -9.3400000000000000e+02  -9.3400000000000000e+02  -9.3400000000000000e+02  -9.3500000000000000e+02  -9.3500000000000000e+02  -9.3500000000000000e+02  -9.3500000000000000e+02  -9.3400000000000000e+02  -9.3300000000000000e+02  -9.3200000000000000e+02  -9.3100000000000000e+02  -9.3000000000000000e+02  -9.3000000000000000e+02  -9.3000000000000000e+02  -9.3100000000000000e+02  -9.3100000000000000e+02  -9.3200000000000000e+02  -9.3300000000000000e+02  -9.3300000000000000e+02  -9.3300000000000000e+02  -9.3300000000000000e+02  -9.3400000000000000e+02  -9.3600000000000000e+02  -9.3700000000000000e+02  -9.3800000000000000e+02  -9.3900000000000000e+02  -9.3900000000000000e+02  -9.3900000000000000e+02  -9.3700000000000000e+02  -9.3500000000000000e+02  -9.3200000000000000e+02  -9.3000000000000000e+02  -9.2800000000000000e+02  -9.2600000000000000e+02  -9.2600000000000000e+02  -9.2700000000000000e+02  -9.3100000000000000e+02  -9.3700000000000000e+02  -9.4600000000000000e+02  -9.5500000000000000e+02  -9.6400000000000000e+02  -9.6900000000000000e+02  -9.7200000000000000e+02  -9.7200000000000000e+02  -9.6900000000000000e+02  -9.6500000000000000e+02  -9.6000000000000000e+02  -9.5300000000000000e+02  -9.4500000000000000e+02  -9.3800000000000000e+02  -9.3100000000000000e+02  -9.2500000000000000e+02  -9.2000000000000000e+02  -9.1500000000000000e+02  -9.1100000000000000e+02  -9.0800000000000000e+02  -9.0500000000000000e+02  -9.0200000000000000e+02  -9.0100000000000000e+02  -8.9900000000000000e+02  -8.9800000000000000e+02  -8.9800000000000000e+02  -8.9800000000000000e+02  -8.9800000000000000e+02  -8.9700000000000000e+02  -8.9600000000000000e+02  -8.9500000000000000e+02  -8.9400000000000000e+02  -8.9300000000000000e+02  -8.9200000000000000e+02  -8.9200000000000000e+02  -8.9200000000000000e+02  -8.9100000000000000e+02  -8.9100000000000000e+02  -8.9100000000000000e+02  -8.9100000000000000e+02  -8.9100000000000000e+02  -8.9000000000000000e+02  -8.8900000000000000e+02  -8.8900000000000000e+02  -8.8800000000000000e+02  -8.8700000000000000e+02  -8.8600000000000000e+02  -8.8500000000000000e+02  -8.8500000000000000e+02  -8.8500000000000000e+02  -8.8600000000000000e+02  -8.8600000000000000e+02  -8.8600000000000000e+02  -8.8500000000000000e+02  -8.8400000000000000e+02  -8.8200000000000000e+02  -8.8100000000000000e+02  -8.8200000000000000e+02  -8.8800000000000000e+02  -8.9900000000000000e+02  -9.1400000000000000e+02  -9.2300000000000000e+02  -9.1600000000000000e+02  -8.8300000000000000e+02  -8.2700000000000000e+02  -7.6000000000000000e+02  -6.9900000000000000e+02  -6.6100000000000000e+02  -6.5200000000000000e+02  -6.6700000000000000e+02  -6.9500000000000000e+02  -7.2600000000000000e+02  -7.5300000000000000e+02  -7.7400000000000000e+02  -7.9000000000000000e+02  -8.0300000000000000e+02  -8.1400000000000000e+02  -8.2400000000000000e+02  -8.3400000000000000e+02  -8.4200000000000000e+02  -8.5000000000000000e+02  -8.5700000000000000e+02  -8.6300000000000000e+02  -8.6800000000000000e+02  -8.7200000000000000e+02  -8.7400000000000000e+02  -8.7600000000000000e+02  -8.7600000000000000e+02  -8.7600000000000000e+02  -8.7600000000000000e+02  -8.7500000000000000e+02  -8.7600000000000000e+02  -8.7700000000000000e+02  -8.7800000000000000e+02  -8.7900000000000000e+02  -8.7900000000000000e+02  -8.8000000000000000e+02  -8.7900000000000000e+02  -8.7700000000000000e+02  -8.7600000000000000e+02  -8.7500000000000000e+02  -8.7400000000000000e+02  -8.7400000000000000e+02  -8.7500000000000000e+02  -8.7500000000000000e+02  -8.7500000000000000e+02  -8.7500000000000000e+02  -8.7400000000000000e+02  -8.7300000000000000e+02  -8.7100000000000000e+02  -8.7000000000000000e+02  -8.6900000000000000e+02  -8.6900000000000000e+02  -8.6800000000000000e+02  -8.6800000000000000e+02  -8.6700000000000000e+02  -8.6500000000000000e+02  -8.6300000000000000e+02  -8.6200000000000000e+02  -8.6200000000000000e+02  -8.6200000000000000e+02  -8.6300000000000000e+02  -8.6500000000000000e+02  -8.6600000000000000e+02  -8.6700000000000000e+02  -8.6700000000000000e+02  -8.6600000000000000e+02  -8.6400000000000000e+02  -8.6200000000000000e+02  -8.6000000000000000e+02  -8.5700000000000000e+02  -8.5400000000000000e+02  -8.5100000000000000e+02  -8.4700000000000000e+02  -8.4300000000000000e+02  -8.4100000000000000e+02  -8.4300000000000000e+02  -8.4800000000000000e+02  -8.5700000000000000e+02  -8.6800000000000000e+02  -8.8100000000000000e+02  -8.9200000000000000e+02  -9.0200000000000000e+02  -9.0900000000000000e+02  -9.1300000000000000e+02  -9.1500000000000000e+02  -9.1600000000000000e+02  -9.1400000000000000e+02  -9.1000000000000000e+02  -9.0300000000000000e+02  -8.9400000000000000e+02  -8.8500000000000000e+02  -8.7700000000000000e+02  -8.7100000000000000e+02  -8.6600000000000000e+02  -8.6200000000000000e+02  -8.5900000000000000e+02  -8.5700000000000000e+02  -8.5500000000000000e+02  -8.5400000000000000e+02  -8.5300000000000000e+02  -8.5200000000000000e+02  -8.5100000000000000e+02  -8.5000000000000000e+02  -8.4800000000000000e+02  -8.4500000000000000e+02  -8.4300000000000000e+02  -8.4200000000000000e+02  -8.4300000000000000e+02  -8.4800000000000000e+02  -8.5600000000000000e+02  -8.6500000000000000e+02  -8.7200000000000000e+02  -8.7500000000000000e+02  -8.7200000000000000e+02  -8.6400000000000000e+02  -8.5200000000000000e+02  -8.4200000000000000e+02  -8.3500000000000000e+02  -8.3400000000000000e+02  -8.3600000000000000e+02  -8.4100000000000000e+02  -8.4800000000000000e+02  -8.5400000000000000e+02  -8.5900000000000000e+02  -8.6200000000000000e+02  -8.6400000000000000e+02  -8.6500000000000000e+02  -8.6600000000000000e+02  -8.6700000000000000e+02  -8.6800000000000000e+02  -8.6900000000000000e+02  -8.7100000000000000e+02  -8.7300000000000000e+02  -8.7400000000000000e+02  -8.7400000000000000e+02  -8.7400000000000000e+02  -8.7400000000000000e+02  -8.7300000000000000e+02  -8.7300000000000000e+02  -8.7300000000000000e+02  -8.7400000000000000e+02  -8.7500000000000000e+02  -8.7500000000000000e+02  -8.7500000000000000e+02  -8.7500000000000000e+02  -8.7500000000000000e+02  -8.7500000000000000e+02  -8.7600000000000000e+02  -8.7700000000000000e+02  -8.7800000000000000e+02  -8.7900000000000000e+02  -8.7900000000000000e+02  -8.7900000000000000e+02  -8.7900000000000000e+02  -8.7900000000000000e+02  -8.8000000000000000e+02  -8.8200000000000000e+02  -8.8500000000000000e+02  -8.8800000000000000e+02  -8.9200000000000000e+02  -8.9200000000000000e+02  -8.9000000000000000e+02  -8.8400000000000000e+02  -8.7800000000000000e+02  -8.7300000000000000e+02  -8.7200000000000000e+02  -8.7200000000000000e+02  -8.7300000000000000e+02  -8.7300000000000000e+02  -8.7200000000000000e+02  -8.7100000000000000e+02  -8.7000000000000000e+02  -8.6900000000000000e+02  -8.7000000000000000e+02  -8.7200000000000000e+02  -8.7400000000000000e+02  -8.7600000000000000e+02  -8.7700000000000000e+02  -8.7800000000000000e+02  -8.7700000000000000e+02  -8.7600000000000000e+02  -8.7400000000000000e+02  -8.7100000000000000e+02  -8.6900000000000000e+02  -8.6700000000000000e+02  -8.6600000000000000e+02  -8.6500000000000000e+02  -8.6500000000000000e+02  -8.6500000000000000e+02  -8.6500000000000000e+02  -8.6600000000000000e+02  -8.6900000000000000e+02  -8.7500000000000000e+02  -8.8500000000000000e+02  -8.9500000000000000e+02  -9.0400000000000000e+02  -9.1100000000000000e+02  -9.1200000000000000e+02  -9.1000000000000000e+02  -9.0600000000000000e+02  -9.0100000000000000e+02  -8.9600000000000000e+02  -8.9000000000000000e+02  -8.8300000000000000e+02  -8.7500000000000000e+02  -8.6800000000000000e+02  -8.6200000000000000e+02  -8.5900000000000000e+02  -8.5600000000000000e+02  -8.5400000000000000e+02  -8.5100000000000000e+02  -8.4900000000000000e+02  -8.4800000000000000e+02  -8.4800000000000000e+02  -8.4800000000000000e+02  -8.4800000000000000e+02  -8.4500000000000000e+02  -8.4000000000000000e+02  -8.3300000000000000e+02  -8.2700000000000000e+02  -8.2400000000000000e+02  -8.2400000000000000e+02  -8.2700000000000000e+02  -8.3000000000000000e+02  -8.3300000000000000e+02  -8.3400000000000000e+02  -8.3400000000000000e+02  -8.3200000000000000e+02  -8.2900000000000000e+02  -8.2600000000000000e+02  -8.2500000000000000e+02  -8.2500000000000000e+02  -8.2700000000000000e+02  -8.2800000000000000e+02  -8.2700000000000000e+02  -8.2400000000000000e+02  -8.2100000000000000e+02  -8.1800000000000000e+02  -8.1700000000000000e+02  -8.1600000000000000e+02  -8.1400000000000000e+02  -8.0900000000000000e+02  -8.0300000000000000e+02  -7.9700000000000000e+02  -7.9300000000000000e+02  -7.9000000000000000e+02  -7.8900000000000000e+02  -7.8800000000000000e+02  -7.8700000000000000e+02  -7.8500000000000000e+02  -7.8600000000000000e+02  -7.9200000000000000e+02  -8.0300000000000000e+02  -8.1600000000000000e+02  -8.2300000000000000e+02  -8.1200000000000000e+02  -7.7800000000000000e+02  -7.2500000000000000e+02  -6.6500000000000000e+02  -6.1400000000000000e+02  -5.8500000000000000e+02  -5.8000000000000000e+02  -5.9500000000000000e+02  -6.2100000000000000e+02  -6.4800000000000000e+02  -6.7200000000000000e+02  -6.9200000000000000e+02  -7.0900000000000000e+02  -7.2400000000000000e+02  -7.3600000000000000e+02  -7.4600000000000000e+02  -7.5500000000000000e+02  -7.6400000000000000e+02  -7.7100000000000000e+02  -7.7700000000000000e+02  -7.8000000000000000e+02  -7.8200000000000000e+02  -7.8300000000000000e+02  -7.8300000000000000e+02  -7.8300000000000000e+02  -7.8200000000000000e+02  -7.8100000000000000e+02  -7.8100000000000000e+02  -7.8100000000000000e+02  -7.8200000000000000e+02  -7.8400000000000000e+02  -7.8500000000000000e+02  -7.8500000000000000e+02  -7.8200000000000000e+02  -7.7800000000000000e+02  -7.7400000000000000e+02  -7.7200000000000000e+02  -7.7200000000000000e+02  -7.7400000000000000e+02  -7.7600000000000000e+02  -7.7600000000000000e+02  -7.7200000000000000e+02  -7.6600000000000000e+02  -7.5900000000000000e+02  -7.5300000000000000e+02  -7.5000000000000000e+02  -7.5200000000000000e+02  -7.5700000000000000e+02  -7.6500000000000000e+02  -7.7200000000000000e+02  -7.7300000000000000e+02  -7.6700000000000000e+02  -7.5500000000000000e+02  -7.4100000000000000e+02  -7.3300000000000000e+02  -7.3000000000000000e+02  -7.3200000000000000e+02  -7.3300000000000000e+02  -7.3200000000000000e+02  -7.2900000000000000e+02  -7.2600000000000000e+02  -7.2700000000000000e+02  -7.3100000000000000e+02  -7.3500000000000000e+02  -7.3600000000000000e+02  -7.3400000000000000e+02  -7.3000000000000000e+02  -7.2500000000000000e+02  -7.2100000000000000e+02  -7.1700000000000000e+02  -7.1200000000000000e+02  -7.0500000000000000e+02  -6.9700000000000000e+02  -6.9000000000000000e+02  -6.8700000000000000e+02  -6.8900000000000000e+02  -6.9900000000000000e+02  -7.1300000000000000e+02  -7.3000000000000000e+02  -7.4600000000000000e+02  -7.5900000000000000e+02  -7.6600000000000000e+02  -7.6800000000000000e+02  -7.6800000000000000e+02  -7.6600000000000000e+02  -7.6400000000000000e+02  -7.6200000000000000e+02  -7.5800000000000000e+02  -7.5200000000000000e+02  -7.4400000000000000e+02  -7.3500000000000000e+02  -7.2900000000000000e+02  -7.2600000000000000e+02  -7.2500000000000000e+02  -7.2500000000000000e+02  -7.2500000000000000e+02  -7.2500000000000000e+02  -7.2500000000000000e+02  -7.2600000000000000e+02  -7.2800000000000000e+02  -7.2900000000000000e+02  -7.3000000000000000e+02  -7.3000000000000000e+02  -7.2700000000000000e+02  -7.2400000000000000e+02  -7.2200000000000000e+02  -7.2200000000000000e+02  -7.2300000000000000e+02  -7.2700000000000000e+02  -7.3100000000000000e+02  -7.3400000000000000e+02  -7.3700000000000000e+02  -7.3800000000000000e+02  -7.3700000000000000e+02  -7.3500000000000000e+02  -7.3300000000000000e+02  -7.3300000000000000e+02  -7.3700000000000000e+02  -7.4300000000000000e+02  -7.5000000000000000e+02  -7.5500000000000000e+02  -7.5800000000000000e+02  -7.5700000000000000e+02  -7.5300000000000000e+02  -7.4900000000000000e+02  -7.4500000000000000e+02  -7.4200000000000000e+02  -7.4200000000000000e+02  -7.4300000000000000e+02  -7.4500000000000000e+02  -7.4600000000000000e+02  -7.4600000000000000e+02  -7.4500000000000000e+02  -7.4200000000000000e+02  -7.3800000000000000e+02  -7.3500000000000000e+02  -7.3100000000000000e+02  -7.2900000000000000e+02  -7.2700000000000000e+02  -7.2700000000000000e+02  -7.2800000000000000e+02  -7.3000000000000000e+02  -7.3100000000000000e+02  -7.3200000000000000e+02  -7.3300000000000000e+02  -7.3400000000000000e+02  -7.3500000000000000e+02  -7.3600000000000000e+02  -7.3700000000000000e+02  -7.3700000000000000e+02  -7.3700000000000000e+02  -7.3900000000000000e+02  -7.4000000000000000e+02  -7.4200000000000000e+02  -7.4300000000000000e+02  -7.4400000000000000e+02  -7.4300000000000000e+02  -7.4300000000000000e+02  -7.4300000000000000e+02  -7.4300000000000000e+02  -7.4500000000000000e+02  -7.4800000000000000e+02  -7.5200000000000000e+02  -7.5700000000000000e+02  -7.6100000000000000e+02  -7.6400000000000000e+02  -7.6700000000000000e+02  -7.6900000000000000e+02  -7.7200000000000000e+02  -7.7600000000000000e+02  -7.8200000000000000e+02  -7.8800000000000000e+02  -7.9300000000000000e+02  -7.9700000000000000e+02  -7.9900000000000000e+02  -7.9800000000000000e+02  -7.9600000000000000e+02  -7.9400000000000000e+02  -7.9200000000000000e+02  -7.9000000000000000e+02  -7.8900000000000000e+02  -7.8900000000000000e+02  -7.9000000000000000e+02  -7.9500000000000000e+02  -8.0300000000000000e+02  -8.1400000000000000e+02  -8.2700000000000000e+02  -8.4200000000000000e+02  -8.5600000000000000e+02  -8.6800000000000000e+02  -8.7800000000000000e+02  -8.8500000000000000e+02  -8.8700000000000000e+02  -8.8500000000000000e+02  -8.7900000000000000e+02  -8.7100000000000000e+02  -8.6300000000000000e+02  -8.5400000000000000e+02  -8.4700000000000000e+02  -8.4100000000000000e+02  -8.3600000000000000e+02  -8.3200000000000000e+02  -8.2900000000000000e+02  -8.2700000000000000e+02  -8.2500000000000000e+02  -8.2400000000000000e+02  -8.2400000000000000e+02  -8.2400000000000000e+02  -8.2600000000000000e+02  -8.2900000000000000e+02  -8.3000000000000000e+02  -8.3000000000000000e+02  -8.2800000000000000e+02  -8.2500000000000000e+02  -8.2400000000000000e+02  -8.2400000000000000e+02  -8.2500000000000000e+02  -8.2600000000000000e+02  -8.2700000000000000e+02  -8.2800000000000000e+02  -8.2800000000000000e+02  -8.2800000000000000e+02  -8.2800000000000000e+02  -8.2700000000000000e+02  -8.2600000000000000e+02  -8.2400000000000000e+02  -8.2300000000000000e+02  -8.2300000000000000e+02  -8.2500000000000000e+02  -8.2900000000000000e+02  -8.3500000000000000e+02  -8.4100000000000000e+02  -8.4600000000000000e+02  -8.4800000000000000e+02  -8.4800000000000000e+02  -8.4500000000000000e+02  -8.4000000000000000e+02  -8.3600000000000000e+02  -8.3300000000000000e+02  -8.3000000000000000e+02  -8.2900000000000000e+02  -8.2800000000000000e+02  -8.3100000000000000e+02  -8.4000000000000000e+02  -8.5100000000000000e+02  -8.5600000000000000e+02  -8.4000000000000000e+02  -7.8900000000000000e+02  -7.0600000000000000e+02  -6.0600000000000000e+02  -5.1600000000000000e+02  -4.5900000000000000e+02  -4.4500000000000000e+02  -4.6600000000000000e+02  -5.0800000000000000e+02  -5.5300000000000000e+02  -5.9300000000000000e+02  -6.2400000000000000e+02  -6.5000000000000000e+02  -6.7200000000000000e+02  -6.9200000000000000e+02  -7.1300000000000000e+02  -7.3200000000000000e+02  -7.5100000000000000e+02  -7.6900000000000000e+02  -7.8600000000000000e+02  -8.0200000000000000e+02  -8.1700000000000000e+02  -8.3200000000000000e+02  -8.4400000000000000e+02  -8.5400000000000000e+02  -8.5900000000000000e+02  -8.6200000000000000e+02  -8.6200000000000000e+02  -8.6000000000000000e+02  -8.5800000000000000e+02  -8.5300000000000000e+02  -8.4700000000000000e+02  -8.3700000000000000e+02  -8.2700000000000000e+02  -8.1700000000000000e+02  -8.1000000000000000e+02  -8.0600000000000000e+02  -8.0500000000000000e+02  -8.0600000000000000e+02  -8.0600000000000000e+02  -8.0700000000000000e+02  -8.0800000000000000e+02  -8.0800000000000000e+02  -8.0700000000000000e+02  -8.0600000000000000e+02  -8.0400000000000000e+02  -8.0200000000000000e+02  -8.0100000000000000e+02  -7.9900000000000000e+02  -7.9700000000000000e+02  -7.9400000000000000e+02  -7.9000000000000000e+02  -7.8700000000000000e+02  -7.8300000000000000e+02  -7.8100000000000000e+02  -7.7900000000000000e+02  -7.7800000000000000e+02  -7.7500000000000000e+02  -7.7200000000000000e+02  -7.7000000000000000e+02  -7.6800000000000000e+02  -7.6700000000000000e+02  -7.6700000000000000e+02  -7.6600000000000000e+02  -7.6500000000000000e+02  -7.6400000000000000e+02  -7.6200000000000000e+02  -7.5900000000000000e+02  -7.5500000000000000e+02  -7.4700000000000000e+02  -7.3900000000000000e+02  -7.2900000000000000e+02  -7.2100000000000000e+02  -7.1500000000000000e+02  -7.1300000000000000e+02  -7.1600000000000000e+02  -7.2300000000000000e+02  -7.3500000000000000e+02  -7.4800000000000000e+02  -7.6100000000000000e+02  -7.7300000000000000e+02  -7.8200000000000000e+02  -7.8800000000000000e+02  -7.9000000000000000e+02  -7.8700000000000000e+02  -7.8100000000000000e+02  -7.7300000000000000e+02  -7.6400000000000000e+02  -7.5500000000000000e+02  -7.4800000000000000e+02  -7.4200000000000000e+02  -7.3900000000000000e+02  -7.3700000000000000e+02  -7.3500000000000000e+02  -7.3400000000000000e+02  -7.3300000000000000e+02  -7.3200000000000000e+02  -7.3100000000000000e+02  -7.2900000000000000e+02  -7.2700000000000000e+02  -7.2500000000000000e+02  -7.2200000000000000e+02  -7.1900000000000000e+02  -7.1700000000000000e+02  -7.1700000000000000e+02  -7.1800000000000000e+02  -7.2000000000000000e+02  -7.2300000000000000e+02  -7.2500000000000000e+02  -7.2800000000000000e+02  -7.3100000000000000e+02  -7.3300000000000000e+02  -7.3500000000000000e+02  -7.3600000000000000e+02  -7.3600000000000000e+02  -7.3700000000000000e+02  -7.3700000000000000e+02  -7.3600000000000000e+02  -7.3600000000000000e+02  -7.3600000000000000e+02  -7.3600000000000000e+02  -7.3600000000000000e+02  -7.3600000000000000e+02  -7.3700000000000000e+02  -7.3900000000000000e+02  -7.4100000000000000e+02  -7.4300000000000000e+02  -7.4400000000000000e+02  -7.4300000000000000e+02  -7.4100000000000000e+02  -7.3800000000000000e+02  -7.3600000000000000e+02  -7.3500000000000000e+02  -7.3600000000000000e+02  -7.3900000000000000e+02  -7.4300000000000000e+02  -7.4800000000000000e+02  -7.5200000000000000e+02  -7.5600000000000000e+02  -7.5800000000000000e+02  -7.6000000000000000e+02  -7.6100000000000000e+02  -7.6000000000000000e+02  -7.6000000000000000e+02  -7.5900000000000000e+02  -7.5800000000000000e+02  -7.5800000000000000e+02  -7.6000000000000000e+02  -7.6200000000000000e+02  -7.6400000000000000e+02  -7.6400000000000000e+02  -7.6300000000000000e+02  -7.6000000000000000e+02  -7.5800000000000000e+02  -7.5700000000000000e+02  -7.5700000000000000e+02  -7.5900000000000000e+02  -7.6200000000000000e+02  -7.6400000000000000e+02  -7.6700000000000000e+02  -7.6800000000000000e+02  -7.6800000000000000e+02  -7.6800000000000000e+02  -7.6800000000000000e+02  -7.6900000000000000e+02  -7.7000000000000000e+02  -7.7200000000000000e+02  -7.7400000000000000e+02  -7.7500000000000000e+02  -7.7600000000000000e+02  -7.7600000000000000e+02  -7.7600000000000000e+02  -7.7700000000000000e+02  -7.7800000000000000e+02  -7.7900000000000000e+02  -7.8000000000000000e+02  -7.8000000000000000e+02  -7.7800000000000000e+02  -7.7600000000000000e+02  -7.7400000000000000e+02  -7.7300000000000000e+02  -7.7300000000000000e+02  -7.7200000000000000e+02  -7.7200000000000000e+02  -7.7200000000000000e+02  -7.7500000000000000e+02  -7.8000000000000000e+02  -7.8900000000000000e+02  -7.9900000000000000e+02  -8.0900000000000000e+02  -8.1600000000000000e+02  -8.1800000000000000e+02  -8.1600000000000000e+02  -8.1200000000000000e+02  -8.0800000000000000e+02  -8.0300000000000000e+02  -7.9800000000000000e+02  -7.9100000000000000e+02  -7.8200000000000000e+02  -7.7200000000000000e+02  -7.6100000000000000e+02  -7.5100000000000000e+02  -7.4400000000000000e+02  -7.3800000000000000e+02  -7.3500000000000000e+02  -7.3300000000000000e+02  -7.3200000000000000e+02  -7.3100000000000000e+02  -7.3200000000000000e+02  -7.3200000000000000e+02  -7.3300000000000000e+02  -7.3500000000000000e+02  -7.3800000000000000e+02  -7.4000000000000000e+02  -7.4100000000000000e+02  -7.4100000000000000e+02  -7.4000000000000000e+02  -7.3900000000000000e+02  -7.3800000000000000e+02  -7.3700000000000000e+02  -7.3700000000000000e+02  -7.3800000000000000e+02  -7.3900000000000000e+02  -7.4000000000000000e+02  -7.4000000000000000e+02  -7.4000000000000000e+02  -7.3900000000000000e+02  -7.3800000000000000e+02  -7.3700000000000000e+02  -7.3600000000000000e+02  -7.3600000000000000e+02  -7.3700000000000000e+02  -7.3800000000000000e+02  -7.4000000000000000e+02  -7.4100000000000000e+02  -7.4100000000000000e+02  -7.4100000000000000e+02  -7.4200000000000000e+02  -7.4200000000000000e+02  -7.4300000000000000e+02  -7.4100000000000000e+02  -7.3700000000000000e+02  -7.3000000000000000e+02  -7.2300000000000000e+02  -7.2200000000000000e+02  -7.2900000000000000e+02  -7.4300000000000000e+02  -7.5700000000000000e+02  -7.5800000000000000e+02  -7.3200000000000000e+02  -6.7800000000000000e+02  -6.0300000000000000e+02  -5.2900000000000000e+02  -4.7500000000000000e+02  -4.5500000000000000e+02  -4.6800000000000000e+02  -5.0200000000000000e+02  -5.4200000000000000e+02  -5.7700000000000000e+02  -6.0200000000000000e+02  -6.1800000000000000e+02  -6.2900000000000000e+02  -6.3900000000000000e+02  -6.5100000000000000e+02  -6.6400000000000000e+02  -6.7700000000000000e+02  -6.8900000000000000e+02  -7.0000000000000000e+02  -7.0900000000000000e+02  -7.1600000000000000e+02  -7.2200000000000000e+02  -7.2600000000000000e+02  -7.3000000000000000e+02  -7.3200000000000000e+02  -7.3200000000000000e+02  -7.3100000000000000e+02  -7.2800000000000000e+02  -7.2600000000000000e+02  -7.2400000000000000e+02  -7.2400000000000000e+02  -7.2400000000000000e+02  -7.2400000000000000e+02  -7.2300000000000000e+02  -7.1900000000000000e+02  -7.1600000000000000e+02  -7.1200000000000000e+02  -7.1000000000000000e+02  -7.0900000000000000e+02  -7.0900000000000000e+02  -7.0900000000000000e+02  -7.0900000000000000e+02  -7.0800000000000000e+02  -7.0600000000000000e+02  -7.0400000000000000e+02  -7.0100000000000000e+02  -6.9900000000000000e+02  -6.9600000000000000e+02  -6.9200000000000000e+02  -6.8800000000000000e+02  -6.8400000000000000e+02  -6.7900000000000000e+02  -6.7400000000000000e+02  -6.6900000000000000e+02  -6.6400000000000000e+02  -6.5800000000000000e+02  -6.5200000000000000e+02  -6.4700000000000000e+02  -6.4400000000000000e+02  -6.4400000000000000e+02  -6.4600000000000000e+02  -6.5000000000000000e+02  -6.5400000000000000e+02  -6.5600000000000000e+02  -6.5500000000000000e+02  -6.5100000000000000e+02  -6.4500000000000000e+02  -6.3800000000000000e+02  -6.3200000000000000e+02  -6.2600000000000000e+02  -6.2100000000000000e+02  -6.1600000000000000e+02  -6.1200000000000000e+02  -6.0900000000000000e+02  -6.0900000000000000e+02  -6.1300000000000000e+02  -6.2000000000000000e+02  -6.3100000000000000e+02  -6.4400000000000000e+02  -6.5800000000000000e+02  -6.7100000000000000e+02  -6.8200000000000000e+02  -6.8900000000000000e+02  -6.9200000000000000e+02  -6.9100000000000000e+02  -6.8700000000000000e+02  -6.8200000000000000e+02  -6.7700000000000000e+02  -6.7300000000000000e+02  -6.6900000000000000e+02  -6.6600000000000000e+02  -6.6400000000000000e+02  -6.6100000000000000e+02  -6.5800000000000000e+02  -6.5600000000000000e+02  -6.5400000000000000e+02  -6.5200000000000000e+02  -6.5000000000000000e+02  -6.4700000000000000e+02  -6.4500000000000000e+02  -6.4300000000000000e+02  -6.4100000000000000e+02  -6.4000000000000000e+02  -6.3800000000000000e+02  -6.3700000000000000e+02  -6.3500000000000000e+02  -6.3400000000000000e+02  -6.3200000000000000e+02  -6.3100000000000000e+02  -6.2900000000000000e+02  -6.2700000000000000e+02  -6.2500000000000000e+02  -6.2300000000000000e+02  -6.2100000000000000e+02  -6.1800000000000000e+02  -6.1500000000000000e+02  -6.1100000000000000e+02  -6.0800000000000000e+02  -6.0500000000000000e+02  -6.0300000000000000e+02  -6.0200000000000000e+02  -6.0100000000000000e+02  -6.0000000000000000e+02  -5.9900000000000000e+02  -5.9900000000000000e+02  -5.9900000000000000e+02  -5.9900000000000000e+02  -5.9900000000000000e+02  -5.9900000000000000e+02  -5.9900000000000000e+02  -5.9800000000000000e+02  -5.9600000000000000e+02  -5.9400000000000000e+02  -5.9200000000000000e+02  -5.8900000000000000e+02  -5.8700000000000000e+02  -5.8600000000000000e+02  -5.8500000000000000e+02  -5.8600000000000000e+02  -5.8700000000000000e+02  -5.8800000000000000e+02  -5.9000000000000000e+02  -5.9200000000000000e+02  -5.9200000000000000e+02  -5.9200000000000000e+02  -5.9200000000000000e+02  -5.9200000000000000e+02  -5.9200000000000000e+02  -5.9200000000000000e+02  -5.9100000000000000e+02  -5.9000000000000000e+02  -5.9000000000000000e+02  -5.9100000000000000e+02  -5.9200000000000000e+02  -5.9400000000000000e+02  -5.9300000000000000e+02  -5.9200000000000000e+02  -5.9100000000000000e+02  -5.9100000000000000e+02  -5.9300000000000000e+02  -5.9600000000000000e+02  -5.9900000000000000e+02  -6.0100000000000000e+02  -6.0400000000000000e+02  -6.0600000000000000e+02  -6.0800000000000000e+02  -6.0800000000000000e+02  -6.0800000000000000e+02  -6.0700000000000000e+02  -6.0700000000000000e+02  -6.1000000000000000e+02  -6.1300000000000000e+02  -6.1500000000000000e+02  -6.1600000000000000e+02  -6.1400000000000000e+02  -6.1100000000000000e+02  -6.0900000000000000e+02  -6.0800000000000000e+02  -6.0900000000000000e+02  -6.0900000000000000e+02  -6.0900000000000000e+02  -6.0800000000000000e+02  -6.1100000000000000e+02  -6.1800000000000000e+02  -6.3100000000000000e+02  -6.4700000000000000e+02  -6.6000000000000000e+02  -6.7000000000000000e+02  -6.7500000000000000e+02  -6.7600000000000000e+02  -6.7400000000000000e+02  -6.7200000000000000e+02  -6.6800000000000000e+02  -6.6400000000000000e+02  -6.6000000000000000e+02  -6.5500000000000000e+02  -6.4900000000000000e+02  -6.4000000000000000e+02  -6.2800000000000000e+02  -6.1000000000000000e+02  -5.8600000000000000e+02  -5.5400000000000000e+02  -5.1500000000000000e+02  -4.6900000000000000e+02  -4.2000000000000000e+02  -3.7200000000000000e+02  -3.2700000000000000e+02  -2.8900000000000000e+02  -2.5500000000000000e+02  -2.2200000000000000e+02  -1.8800000000000000e+02  -1.5100000000000000e+02  -1.1500000000000000e+02  -8.0000000000000000e+01  -4.2000000000000000e+01   3.0000000000000000e+00   5.8000000000000000e+01   1.1900000000000000e+02   1.7600000000000000e+02   2.2000000000000000e+02   2.4600000000000000e+02   2.5500000000000000e+02   2.5200000000000000e+02   2.4500000000000000e+02   2.4000000000000000e+02   2.3900000000000000e+02   2.4000000000000000e+02   2.4100000000000000e+02   2.3900000000000000e+02   2.3200000000000000e+02   2.2000000000000000e+02   2.0200000000000000e+02   1.7900000000000000e+02   1.5200000000000000e+02   1.2500000000000000e+02   1.0200000000000000e+02   8.7000000000000000e+01   8.2000000000000000e+01   8.3000000000000000e+01   8.5000000000000000e+01   8.2000000000000000e+01   7.2000000000000000e+01   6.0000000000000000e+01   5.2000000000000000e+01   6.0000000000000000e+01   8.9000000000000000e+01   1.3500000000000000e+02   1.8400000000000000e+02   2.1900000000000000e+02   2.2800000000000000e+02   2.1100000000000000e+02   1.7700000000000000e+02   1.4400000000000000e+02   1.2600000000000000e+02   1.3300000000000000e+02   1.6700000000000000e+02   2.2300000000000000e+02   2.9200000000000000e+02   3.6700000000000000e+02   4.4000000000000000e+02   5.0700000000000000e+02   5.6700000000000000e+02   6.2300000000000000e+02   6.7700000000000000e+02   7.2800000000000000e+02   7.7800000000000000e+02   8.2500000000000000e+02   8.6800000000000000e+02   9.0800000000000000e+02   9.4700000000000000e+02   9.8900000000000000e+02   1.0370000000000000e+03   1.0910000000000000e+03   1.1470000000000000e+03   1.2000000000000000e+03   1.2450000000000000e+03   1.2810000000000000e+03   1.3070000000000000e+03   1.3240000000000000e+03   1.3350000000000000e+03   1.3430000000000000e+03   1.3510000000000000e+03   1.3620000000000000e+03   1.3740000000000000e+03   1.3850000000000000e+03   1.3910000000000000e+03   1.3930000000000000e+03   1.3920000000000000e+03   